Date,A,AA,AAPL,ABC,ABI,ABK,ABT,ACAS,ACE,ACS,ADBE,ADI,ADM,ADP,ADSK,AEE,AEP,AES,AET,AFL,AGN,AIG,AIV,AIZ,AKAM,ALL,ALTR,AMAT,AMD,AMGN,AMP,AMT,AMZN,AN,ANF,AOC,APA,APC,APD,APOL,ASD,ASH,ATI,AVB,AVP,AVY,AW,AXP,AYE,AZO,BA,BAC,BAX,BBBY,BBT,BBY,BC,BCR,BDK,BDX,BEN,BF.B,BHI,BIG,BIIB,BJS,BK,BLL,BMC,BMS,BMY,BNI,BRCM,BRL,BSC,BSX,BTU,BUD,BXP,C,CA,CAG,CAH,CAT,CB,CBE,CBG,CBH,CBS,CC,CCE,CCL,CCU,CEG,CELG,CFC,CHK,CHRW,CI,CIEN,CINF,CIT,CL,CLX,CMA,CMCSA,CME,CMI,CMS,CNP,CNX,COF,COH,COL,COP,COST,COV,CPB,CPWR,CSC,CSCO,CSX,CTAS,CTL,CTSH,CTX,CTXS,CVG,CVH,CVS,CVX,CZN,D,DD,DDR,DDS,DE,DELL,DF,DFS,DGX,DHI,DHR,DIS,DJ,DOV,DOW,DRI,DTE,DTV,DUK,DVN,DYN,EBAY,ECL,ED,EDS,EFX,EIX,EK,EL,EMC,EMN,EMR,EOG,EP,EQ,EQR,ERTS,ESRX,ESV,ETFC,ETN,ETR,EXC,EXPD,EXPE,F,FCX,FDO,FDX,FE,FHN,FII,FIS,FISV,FITB,FLR,FNM,FO,FPL,FRE,FRX,GAS,GCI,GD,GE,GENZ,GGP,GILD,GIS,GLW,GM,GNW,GOOG,GPC,GPS,GR,GS,GT,GWW,HAL,HAR,HAS,HBAN,HCBK,HD,HES,HET,HIG,HNZ,HOG,HON,HOT,HPC,HPQ,HRB,HSP,HST,HSY,HUM,IACI,IBM,ICE,IFF,IGT,INTC,INTU,IP,IPG,IR,ITT,ITW,JAVAD,JBL,JCI,JCP,JDSU,JEC,JNJ,JNPR,JNS,JNY,JPM,JWN,K,KBH,KEY,KFT,KG,KIM,KLAC,KMB,KO,KR,KSS,LEG,LEH,LEN,LH,LIZ,LLL,LLTC,LLY,LM,LMT,LNC,LOW,LSI,LTD,LTR,LUK,LUV,LXK,M,MAR,MAS,MAT,MBI,MCD,MCHP,MCK,MCO,MDP,MDT,MER,MET,MHP,MHS,MI,MIL,MKC,MMC,MMM,MNST,MO,MOLX,MON,MOT,MRK,MRO,MS,MSFT,MTB,MTG,MTW,MU,MUR,MWV,MYL,NBL,NBR,NCC,NE,NEM,NI,NKE,NOC,NOV,NOVL,NSC,NSM,NTAP,NTRS,NUE,NVDA,NVLS,NWL,NWS.A,NYT,NYX,ODP,OMC,OMX,ORCL,OXY,PAYX,PBG,PBI,PCAR,PCG,PCL,PCP,PDCO,PEG,PEP,PFE,PFG,PG,PGN,PGR,PH,PHM,PKI,PLD,PLL,PNC,PNW,POM,PPG,PPL,PRU,PSA,PTV,PX,Q,QCOM,QLGC,R,RAI,RDC,RF,RHI,RIG,RL,ROH,ROK,RRD,RSH,RTN,RX,S,SAF,SBUX,SCHW,SE,SEE,SGP,SHLD,SHW,SIAL,SII,SLB,SLE,SLM,SNA,SNDK,SNV,SO,SOV,SPG,SPLS,SRE,SSP,STI,STJ,STR,STT,STZ,SUN,SVU,SWK,SWY,SYK,SYMC,SYY,T,TAP,TDC,TE,TEG,TEL,TER,TEX,TGT,THC,TIE,TIF,TIN,TJX,TLAB,TMK,TMO,TRB,TROW,TRV,TSN,TSO,TWX,TXN,TXT,TYC,UIS,UNH,UNM,UNP,UPS,USB,UST,UTX,VAR,VFC,VIA.B,VLO,VMC,VNO,VRSN,VZ,WAG,WAT,WB,WEN,WFC,WFMI,WFR,WFT,WHR,WIN,WLP,WM,WMB,WMI,WMT,WPI,WU,WWY,WY,WYE,WYN,X,XEL,XL,XLNX,XOM,XRX,XTO,YHOO,YUM,ZION,ZMH
2005-01-03,23.88,29.2752,31.645,28.7677,20.6583,81.1131,43.6628,30.1963,40.1125,59.08,30.845,35.6906,21.3831,42.7268,37.43,45.2215,32.1129,13.55,30.6702,38.9816,40.0775,64.9939,34.3775,30.2541,12.82,50.0319,20.0065,16.6755,21.41,64.28,,18.16,44.52,18.83,45.5117,22.8234,47.7911,30.6018,55.9468,81.01,40.3979,55.8182,20.1907,69.3329,37.2107,57.6239,9.090000000000002,47.7529,19.36,90.75,49.3601,45.02,34.1107,39.91,39.3999,38.4465,47.8381,64.1397,85.671,54.7375,65.1056,47.6802,40.8248,11.76,66.29,22.1137,31.7773,42.9637,18.1,27.5362,23.5288,45.5575,21.1002,44.85,101.1393,34.29,19.1416,48.7336,57.9676,45.4235,30.5976,26.9065,56.8941,43.1339,36.6309,32.1291,10.8735,30.4939,,14.8658,20.7428,55.8056,30.2003,41.6782,13.15,36.3529,15.3237,25.2012,26.3549,23.24,41.3193,45.7407,48.1562,55.8199,56.458,21.6942,215.134,40.0442,10.3583,10.3551,19.6859,80.555,27.55,38.7053,41.1741,47.1814,,28.8659,6.42,55.58,19.32,19.7118,42.7988,34.6134,20.915,58.4462,24.1,15.18,34.5246,22.2791,48.1635,11.758,32.5154,48.2457,40.2449,26.6674,70.2205,41.79,21.351,16.78,46.3882,28.936,56.1693,27.557,40.7154,40.5161,46.4528,26.8942,39.496,16.49,13.6693,36.8031,4.6,57.055,34.1382,39.6284,22.9086,28.5378,30.1885,31.7921,45.0552,14.73,54.1562,33.9547,33.1119,10.0433,,32.659,60.88,19.005,30.5945,14.7,69.039,64.9569,42.2812,27.2839,,13.5253,33.7813,29.9485,96.8469,37.2913,39.9674,28.9348,35.0985,40.02,44.5925,52.5336,68.416,70.3922,35.9954,69.9836,44.2,33.4361,79.53029999999998,49.583,35.1238,57.39,33.6475,17.365,46.6606,11.71,38.4806,26.7102,202.71,41.4697,20.6851,31.728,103.3951,14.9,63.8489,18.8765,121.6081,18.337,23.5424,11.2175,42.6278,25.8484,63.987,67.6962,37.4035,58.9003,33.9636,44.9948,14.65,20.5739,23.3635,33.08,16.3838,53.4906,29.16,26.14,95.8457,,41.4754,33.0554,22.7105,21.45,39.844,13.45,38.9863,41.2879,45.0886,20.44,24.67,20.1216,40.7731,25.04,23.19,61.2964,26.82,16.4,36.5229,37.0682,22.8986,43.3232,51.2159,32.17,33.8842,12.3,27.0718,44.9548,62.2051,40.1871,17.0948,49.27,26.8628,43.5732,54.9928,48.7,41.7771,70.6264,37.1559,55.8394,71.2841,53.2921,43.8656,28.8275,5.28,22.0966,22.7528,22.6479,16.057,85.0,28.4488,31.0389,35.1939,18.6039,61.9547,31.1804,25.7308,30.9022,42.0942,53.3547,48.8007,57.8809,39.7484,44.4046,41.55,42.7169,48.84,37.0104,31.7782,79.2855,32.39,43.7378,28.9211,26.8795,16.8867,30.1706,17.5451,45.0567,26.0718,104.1479,66.9836,9.4215,12.0,37.9509,31.9038,17.3673,28.9686,24.47,34.9207,23.8191,42.076,20.5989,44.3487,52.7098,16.97,6.57,34.7681,17.382,32.7,45.9601,24.4745,7.781399999999999,27.26,22.5375,18.6428,39.5084,,17.2,41.7149,30.9753,13.41,27.4696,32.2018,26.5173,43.5985,31.7378,31.4232,35.4723,32.2312,43.19,47.7121,50.3352,25.6651,40.0498,53.2522,40.8026,21.8407,48.1757,31.4978,21.6038,41.9059,27.983,54.1117,40.1901,19.2443,63.5813,24.6036,53.3106,53.3682,25.14,43.4665,4.37,41.9669,18.405,45.4064,36.0956,24.5839,32.781,28.2848,40.12,41.6376,42.8397,48.3933,33.2833,32.3475,37.0217,22.8486,24.5189,49.3747,30.57,11.5303,23.53,26.7791,20.7695,100.1,42.6585,29.5876,26.0062,31.6715,23.0425,53.9654,32.5725,24.18,27.9478,30.9348,22.2694,59.5963,21.4932,35.6114,47.267,70.5845,41.04,23.7221,47.839,23.23,37.3724,33.0085,45.9333,19.4602,48.1328,26.2,36.0248,22.3311,37.1132,,14.4203,47.2775,,16.57,22.89,51.086,10.71,3.0287,31.3438,33.1083,24.6021,9.18,56.093,29.68,40.6418,30.4841,35.8117,17.7927,14.8564,19.1802,24.0769,35.0285,55.7499,10.0,43.2728,17.1205,65.4379,83.1409,29.4147,44.9515,49.3737,42.74,52.6563,36.64,21.273,52.2091,71.217,32.56,37.3853,40.0193,45.77,50.3562,16.4838,29.4296,46.0679,13.0,24.86,67.4001,,56.25,38.2992,15.3377,28.7482,50.4166,31.9,,52.9595,63.9987,41.8345,,48.5588,16.822,72.9518,28.9391,49.5724,16.97,24.4488,38.18,23.1002,64.6694,79.38
2005-01-04,23.25,28.7461,31.97,28.5402,19.8619,80.04,43.223,29.3626,40.0082,58.26,30.03,34.7196,21.1494,42.0448,35.0,44.863,31.9902,13.05,30.1357,38.9423,39.5086,65.2105,33.894,29.6628,12.2,49.8658,19.1579,16.3582,20.21,63.26,,17.92,42.14,18.95,46.465,22.6104,47.405,30.2618,54.877,82.20999999999998,39.9868,54.2182,19.5683,68.5594,36.6748,56.8253,9.08,47.0355,19.03,89.7,48.4013,44.3998,34.0418,39.66,39.466,37.4218,47.4638,63.8629,84.54819999999998,54.1022,64.6749,47.3925,40.9334,11.33,64.76,21.8178,31.2878,42.9637,17.07,27.1158,23.2697,44.1204,20.8296,44.0,100.1316,34.17,18.9063,48.695,56.9749,45.0376,29.5353,26.8144,55.2822,42.6575,36.1269,31.7049,10.8108,30.398,,14.8658,20.5746,55.5524,29.879,41.305,12.585,35.8872,15.1949,25.091,26.1638,21.42,40.6965,44.4699,47.8192,55.2364,56.0843,21.1398,211.7674,39.1052,10.2187,10.2521,19.0883,79.0651,26.925,37.969,40.9049,46.3343,,29.0408,6.21,54.56,18.56,19.2861,42.1939,34.1062,20.68,55.4067,23.76,14.47,34.1946,22.0266,47.8323,11.6531,32.366,47.2045,39.5081,26.1117,68.5454,40.52,21.3246,16.36,45.8691,27.6565,55.5899,27.2602,40.6301,40.3292,45.4479,26.825,39.4868,16.05,13.5329,36.7141,4.42,55.655,33.7041,39.5094,22.4006,27.542,30.1124,31.8019,44.146,14.31,49.3265,33.5593,32.5895,10.0532,,32.4563,59.14,18.9075,30.2162,14.1,67.1755,64.4583,41.9976,26.8311,,13.4793,32.4467,29.3741,95.1168,37.1681,39.5219,28.7701,34.8097,39.51,44.2736,51.7314,67.1105,69.867,35.557,68.8905,42.92,33.169,79.13849999999998,48.2951,34.7015,56.7,33.1042,16.94,46.5174,11.53,38.0891,26.4342,194.5,41.0894,20.3694,31.0284,102.7252,14.46,62.7701,18.8963,120.0989,18.289,23.3992,11.1462,42.0838,25.8973,62.8851,66.9484,37.1231,58.9594,33.3575,44.7116,14.39,20.4371,23.0804,32.43,16.2392,54.0613,29.1,25.63,94.8161,,40.2932,32.9968,22.2577,20.745,38.8861,13.21,38.2053,40.6738,44.8048,18.52,24.07,19.8621,39.9462,24.4,23.195,61.1015,25.8,16.1,35.9316,36.686,22.5137,43.1669,48.8695,32.0354,33.7481,12.23,26.7517,43.496,62.234,39.626,16.6362,47.7,26.8531,42.7809,52.469,48.49,41.0217,67.2002,36.2687,55.0948,69.7438,52.3877,44.0463,28.2257,5.02,21.9105,22.7462,21.9617,15.5973,83.51999999999998,28.4488,30.5624,34.4432,18.6233,61.5704,31.4352,25.2855,30.5044,41.4595,52.9395,48.5737,57.0202,39.5009,44.3898,41.8,42.2569,48.44,37.0299,31.8748,78.6408,29.8,44.0408,28.514,25.7798,16.5501,30.0452,17.3485,44.5731,26.1693,103.6954,66.8151,9.277500000000002,11.66,38.1292,31.2558,17.0013,28.5409,24.345,34.4055,23.6046,41.2912,20.2766,43.7178,51.58,16.965,6.32,34.4843,16.8441,31.4,45.5628,24.3144,7.4151,26.12,22.1809,18.2443,39.342,,16.82,41.6902,30.7617,13.06,27.1636,31.5558,26.2126,42.7323,30.691,31.1853,34.9614,31.4329,42.63,47.3094,49.9766,25.6651,40.0103,52.5864,40.3478,21.6262,47.1629,30.3073,21.3397,41.6305,27.5412,53.7291,40.1355,19.2813,62.1442,24.3299,52.9246,52.6927,24.99,42.8439,4.39,41.7785,17.75,44.9496,35.7508,24.5148,32.6694,28.4136,40.0,41.1794,41.0043,47.6488,32.8341,31.2396,35.5915,22.4104,23.7295,48.8104,30.55,11.2633,23.32,25.9014,20.2071,100.35,42.1557,28.9901,25.9369,31.43,23.3499,52.9976,31.8974,23.37,27.7027,30.9161,22.3584,58.9439,21.0549,35.5231,47.3363,69.7602,40.8,23.3321,47.6426,23.0,37.435,32.626,45.1762,18.7546,48.7712,25.41,35.435,22.0955,36.3647,,14.3541,46.7499,,15.57,22.335,50.5337,10.61,3.035,30.9769,32.472,24.513,8.689999999999998,55.5299,29.31,40.6222,29.6338,35.6098,17.8026,14.6872,18.8739,23.4993,34.2923,56.0802,9.82,42.8281,17.101,63.8466,82.0845,29.2726,44.989,48.8033,41.6,52.2115,36.74,21.278,51.6205,70.1487,31.47,37.0067,39.7319,45.0,49.8351,16.539,29.4534,46.004,12.11,24.855,66.2385,,55.5,37.8088,15.2093,28.427,50.2938,31.62,,52.6797,63.0149,41.5592,,48.0268,16.5699,73.1234,28.1185,49.2359,16.72,24.3451,36.58,22.7943,63.7866,79.35
2005-01-05,23.24,28.5761,32.25,28.4858,19.8815,80.8374,42.7272,29.7749,39.9798,58.25,29.865,34.8765,20.7891,41.8694,35.27,44.4587,31.6126,13.02,30.4304,38.6576,39.3938,66.2932,32.4612,29.4164,12.0,49.4751,18.8285,16.0806,19.75,62.26,,17.76,41.77,19.0,46.6517,22.0006,47.2467,29.7593,54.9252,81.18,39.4386,53.5491,19.0152,65.2512,36.4897,56.1241,8.849999999999998,46.7014,18.82,90.29,49.2051,43.8862,34.4063,40.01,39.702,37.6488,47.1781,63.0027,83.32779999999998,53.7993,63.7479,47.5413,40.7952,11.33,64.84,21.5269,31.3358,41.9436,17.0,27.049,23.1948,43.8271,20.4666,45.31,101.08,34.7,18.3988,48.1838,54.7346,45.6023,29.1283,26.5475,55.1528,41.8408,36.0836,31.2662,10.5006,30.0469,,13.6237,20.4262,55.4551,29.1905,41.3433,12.775,35.2134,15.0761,25.3159,25.9991,21.21,41.4587,42.4445,46.7409,54.959,55.4957,21.3378,214.7292,37.4022,10.0792,10.0649,18.7179,78.27679999999998,26.95,37.8198,41.2084,46.5116,,28.8173,6.04,54.32,18.57,19.2119,42.0848,33.4696,20.49,54.5497,22.96,14.66,34.65,22.4028,48.1446,11.7143,32.1395,46.5759,37.9426,25.9827,67.8811,40.25,20.9484,16.3,45.2423,27.0609,55.3102,27.1117,40.3269,39.542,44.9877,26.0544,39.2559,16.0,13.4292,36.2095,4.39,55.45,33.3785,39.0792,22.0022,27.7113,29.6276,31.6649,43.306,14.05,48.7783,33.2578,32.3158,9.9641,,31.4153,59.71,19.05,30.3655,13.85,66.1952,63.4221,41.3716,27.6769,,13.2678,32.0745,29.413,94.9975,36.8649,39.4847,28.7992,34.6603,39.71,43.5609,50.3451,67.0049,69.2221,35.0992,68.344,41.7,32.9479,78.64879999999998,48.2465,34.4903,56.91,31.9699,16.705,47.4717,11.4,37.3539,25.9412,193.51,40.6331,20.4582,30.4273,102.2621,14.34,61.8481,18.658,118.9895,18.145,23.2463,11.0532,41.6981,25.7344,63.6067,66.6631,36.9683,58.7823,33.2613,44.3339,14.19,20.5251,22.5094,31.51,15.6803,52.7525,29.7,25.43,94.62,,40.2439,32.7918,22.0411,20.51,39.4457,13.19,37.3452,40.5846,45.069,18.8,23.57,19.689,40.1628,23.84,22.79,61.0625,25.64,15.9,35.1235,36.7624,23.2243,43.4306,48.628,31.8237,33.4761,12.25,25.6123,42.7914,61.1643,39.4422,16.4967,48.08,26.6593,43.03,51.978,47.88,40.1967,68.0988,35.8884,55.6706,69.1177,53.705,43.9512,27.987,5.73,22.1652,22.7855,21.4295,15.5973,84.4,28.2906,30.5823,33.95,18.3322,61.1663,31.1902,24.5135,30.4944,41.281,52.3166,48.2118,56.8148,39.2436,44.4786,42.35,42.5994,47.94,36.5621,31.585,77.6786,28.63,43.9614,27.9084,25.1199,16.3521,30.2479,17.1375,44.3151,26.1108,103.5381,66.7755,8.9968,11.53,37.6786,31.0176,16.8431,27.9043,24.085,34.0401,23.6046,41.3906,20.1569,43.1946,52.366,16.8,6.36,35.1203,16.8142,31.45,45.3884,24.1009,7.4844,25.79,21.7212,18.0749,39.4595,,16.61,41.493,29.043,13.1,27.013,31.3341,25.8981,41.9993,29.7006,30.8047,33.4846,31.6026,42.59,46.682,50.0347,25.4904,39.556,53.1364,40.2386,21.6411,46.3242,30.0582,20.704,40.2336,27.5019,53.2508,39.243,19.0685,61.265,23.9819,52.4,50.8108,24.65,41.9742,4.38,41.957,17.75,45.1926,35.6358,24.574,32.4741,27.8291,39.8,40.7311,40.4283,46.6462,32.4039,31.8727,35.8834,22.1315,23.8381,48.6158,30.8,11.1941,22.46,25.2432,20.0887,96.57,41.5563,28.832,25.7091,31.5286,22.9177,53.0865,31.5647,23.17,27.6047,30.729,22.0519,56.3345,21.0287,35.0718,47.3562,69.256,40.14,22.8641,47.3283,22.355,36.9053,32.4788,45.042,18.5458,48.8311,25.04,35.4835,22.2002,35.4587,,14.2311,46.021,,15.36,22.175,50.5731,10.48,2.96,30.4115,31.9863,24.414,8.699999999999998,55.52,29.23,40.681,29.5102,35.5521,17.605,14.5578,18.6861,22.7924,34.3892,55.8285,9.76,42.978,16.8273,63.2644,81.9182,29.4242,45.0734,48.439,40.99,51.5056,37.41,20.8284,51.444,67.2438,30.64,36.9513,40.7527,45.33,50.3755,16.1824,29.4866,45.935,11.87,24.685,66.2971,,57.61,37.2184,15.1006,28.1933,50.3599,31.12,,52.4621,63.2823,40.6547,,48.1155,16.3832,72.4273,27.2286,48.9786,16.39,23.6487,36.13,22.74,63.5563,78.73
2005-01-06,22.73,28.6989,32.275,28.7282,20.2945,80.8177,43.6908,30.4437,40.4252,57.77,29.37,34.8177,21.2176,41.5868,35.1,44.909,31.6221,13.03,30.8475,39.2565,39.4986,66.4015,32.1925,30.1555,11.94,49.9049,18.6388,15.9616,19.72,62.84,,17.92,41.05,18.68,49.256,22.562,48.0089,30.3013,55.2625,81.51,39.4582,54.1697,19.114,66.3042,36.9184,56.7961,8.99,46.4612,18.95,89.54999999999998,48.8855,43.8184,34.5443,39.96,39.6548,35.995,46.9812,62.884,81.4924,53.8091,63.9819,47.6008,41.3283,10.85,65.19,21.7192,31.9597,42.2804,17.53,27.2209,23.1574,44.2866,20.4468,46.9,101.8506,35.19,18.369,47.4603,55.7363,46.0445,28.5426,26.75,56.0682,42.4579,36.3333,31.2855,10.6161,30.1883,,13.5541,20.7131,55.8543,29.4659,41.8505,13.375,35.0747,15.4921,25.3113,26.0123,21.42,41.7562,42.6331,47.877,55.4469,55.5704,21.3048,218.6783,37.2319,10.0692,10.0743,18.9303,79.2573,27.505,37.5014,41.8056,47.1814,,28.8173,5.97,53.93,18.85,19.4445,42.4913,33.9172,20.245,55.8054,22.81,14.83,35.0922,22.4078,48.9489,11.9066,32.313,46.5661,38.5872,26.0819,68.8245,40.18,21.0078,16.11,45.115,27.605,55.3402,27.1513,40.469,39.1682,45.5042,27.0424,39.4221,16.03,13.4292,36.7141,4.5,53.09,33.4771,39.125,21.8528,27.4823,29.6372,31.2244,43.8792,13.8,49.7991,33.4753,32.7935,10.3401,,31.4153,58.41,19.095,31.0724,13.88,66.3893,63.4808,41.5281,27.8162,,13.2862,32.0291,30.2309,94.6495,36.8743,39.6518,29.0608,34.8993,40.0,43.3827,50.5728,67.5328,70.3922,35.6691,68.7947,42.16,33.2058,79.53029999999998,48.334,34.7687,58.12,32.0176,16.81,47.8173,11.74,37.669,25.951,188.55,40.7281,20.6653,30.516,103.671,14.63,61.3381,18.9907,119.7891,18.1642,23.2846,11.202,41.075,26.0667,64.5233,66.9287,36.7459,59.1167,33.04,45.4198,14.33,20.486,22.9317,31.87,15.8537,52.6541,29.64,25.36,94.3259,,40.4705,32.5575,22.11,20.38,39.256,13.23,37.3947,41.0056,44.5846,18.4,23.26,19.6217,40.2663,23.68,22.8,61.2379,25.18,16.02,35.6064,36.9725,23.5303,43.4892,49.5202,31.5351,33.4956,12.36,26.0878,41.9876,62.1569,39.7711,16.3671,47.02,27.0954,43.942,52.5672,48.17,40.4551,68.4048,35.8299,56.1173,70.0618,53.587,44.7998,28.0765,5.59,21.8713,22.8347,21.1808,15.4774,84.98999999999998,28.2807,30.8701,34.2498,18.3225,60.851,31.4352,24.2275,31.0017,41.167,51.9509,49.2008,57.3723,39.6989,45.2478,42.7,42.531,48.97,36.757,30.5998,78.381,28.72,43.6512,27.69,26.2527,16.5402,30.4312,17.4013,45.363,26.0816,103.184,67.5387,9.1657,11.41,39.0154,31.0462,16.9914,28.2077,23.99,34.2743,24.2332,41.321,20.2306,43.1408,52.2284,17.125,6.33,35.6292,17.0035,31.13,45.9213,23.8681,7.4118,25.88,21.7775,17.8357,39.6064,,16.66,41.8726,29.1595,13.22,27.5279,31.0641,25.9177,42.1706,29.4188,30.5953,34.1347,31.7173,42.82,46.7756,50.3933,25.5098,39.4375,53.397,40.4784,21.7584,46.5307,30.7905,20.9094,40.755,27.6492,53.6143,38.8878,19.1981,62.1348,23.8288,52.7761,50.9556,24.51,42.3893,4.43,42.6412,16.75,45.4647,35.7048,25.0381,32.6136,28.374,41.25,40.8706,40.9262,46.2392,32.4039,30.9032,35.5331,22.3605,24.1834,48.7618,29.87,11.382,22.63,25.298,20.513,94.29,41.5853,29.3111,26.3529,32.1447,22.812,53.3235,31.5932,23.42,27.438,30.5325,21.9827,56.8378,21.0418,35.3858,47.8319,69.4014,39.7,22.9811,47.5542,23.245,38.109,32.675,44.285,18.516,48.5318,23.18,35.4155,22.2294,35.8132,,14.1365,46.2032,,15.17,22.42,47.8314,10.37,2.9375,30.0544,31.9426,24.424,8.4,55.7176,29.25,40.5929,29.792,35.7155,17.358,14.7718,18.7059,22.7028,33.9726,57.2128,9.7,43.9272,16.8273,63.6525,81.8302,29.3579,45.2705,48.4678,40.58,51.5732,37.84,21.4509,51.5911,67.9185,30.58,36.872,40.7725,45.7,50.3369,16.28,29.5912,45.8463,11.95,24.925,67.156,,57.7,37.3546,15.3081,28.0473,51.0781,31.54,,53.2238,63.5402,40.9398,,47.7805,16.3552,72.47499999999998,26.7936,49.6021,16.32,24.0413,35.43,22.9966,63.9209,79.64
2005-01-07,22.71,28.9918,34.625,28.6441,20.1765,79.7446,44.4393,30.0681,40.2736,57.96,29.39,34.8667,21.2663,41.5089,34.3,44.8906,31.4994,12.84,30.9574,38.962,39.4388,66.5196,32.2015,29.9387,12.15,49.8463,18.6388,16.0112,19.92,62.97,,18.24,42.32,18.66,48.6467,22.0974,47.702,30.252,55.5613,81.54999999999998,39.1645,53.6266,18.6892,66.211,38.5748,57.2538,8.859999999999998,46.1181,18.83,89.73,48.7209,43.3436,34.9581,39.8,39.2016,35.7745,46.3902,63.0126,80.6332,53.6136,63.3639,47.5016,40.8248,10.89,66.09,21.2459,31.9693,41.9535,17.4,27.6222,23.148,44.1008,21.714,45.96,101.3863,34.74,18.3517,47.4892,55.6362,45.7811,28.3242,26.6211,55.8394,42.3671,36.4437,31.1505,10.626,30.2029,,13.5442,20.4856,55.9906,29.2732,41.8696,13.615,34.9954,15.4822,24.9717,25.9661,21.07,41.561,42.5239,48.2139,55.9155,55.3649,21.4962,214.8279,36.5166,9.9894,10.0181,18.9155,78.78629999999998,27.675,37.7601,41.5412,46.7775,,28.5744,5.84,54.02,18.72,19.2317,43.4036,34.1559,20.26,55.7854,23.03,14.99,35.3298,22.6504,48.4001,12.1077,32.2407,46.5268,38.7438,26.1017,67.8715,40.19,21.021,16.0,44.9877,27.5462,55.4401,26.8842,40.6965,38.5975,45.0722,28.0304,39.4499,16.22,13.4619,36.6151,4.39,53.29,33.2798,39.2348,21.8627,27.3628,29.4185,30.5392,44.2646,13.85,49.3927,33.1788,32.5795,10.3995,,31.2771,58.94,19.21,30.5348,13.65,65.7778,63.4515,41.1075,28.0849,,13.4701,32.3378,29.9875,94.3711,36.4858,39.3826,28.838,34.969,40.1,43.092,50.3154,67.1969,70.3001,35.6009,68.7563,42.31,32.9387,79.971,48.509,34.5575,57.86,32.5228,16.775,48.9119,11.88,37.2393,25.6848,193.85,40.4524,20.4385,30.6441,103.2276,14.7,60.8281,18.8566,116.8406,17.857,23.0553,11.3756,40.9662,26.0602,64.494,66.4171,36.804,58.5463,32.9149,45.3568,14.11,20.3687,22.4182,32.62,15.9308,53.1461,29.42,25.61,93.914,,40.7858,32.4111,22.4447,20.635,39.1611,13.16,37.1969,40.6143,44.5308,18.48,23.0,19.5801,40.2564,23.44,22.695,61.0138,25.46,16.01,35.2516,36.6764,23.6142,43.1767,49.0963,31.2176,33.4761,12.05,26.1113,42.6425,61.81,39.8195,16.5765,46.8,26.921,43.9619,52.9011,47.85,40.3259,68.1383,36.0347,55.8493,70.181,53.8426,44.4258,28.181,5.83,22.0378,22.7593,21.2853,15.5474,83.98999999999998,27.9643,30.8255,34.1531,18.2157,60.8313,31.2294,24.276,30.7133,41.157,51.5357,49.6458,57.2061,39.303,45.1739,42.74,42.1493,48.84,37.0982,30.1941,79.1892,28.82,44.2933,27.4815,26.2626,16.5204,30.0452,17.6555,45.1857,26.0035,101.797,67.9649,8.9968,11.46,38.5648,31.0843,16.942,28.0535,23.5,34.0027,23.8291,41.2217,20.2398,42.8865,52.1203,16.615,6.25,35.6781,16.884,30.48,45.1849,23.9312,7.2699,25.88,21.7962,17.5866,39.6945,,16.74,41.9466,29.0042,13.33,27.081,30.9581,25.9669,42.5133,29.1772,30.3764,34.0605,31.9867,42.81,46.5134,50.8294,25.5195,39.3092,53.9566,40.4046,21.5264,46.0662,30.5862,20.8996,40.6959,27.6492,53.2891,39.1701,19.1981,62.4373,23.7267,52.0833,51.1968,24.91,42.3794,4.52,42.8594,16.89,45.0857,35.9209,24.6135,32.5299,28.0867,40.22,40.9104,41.4338,45.6833,32.2701,30.8439,35.426,22.4104,23.9762,48.431,29.835,11.3424,21.46,25.4277,20.9274,93.71,41.3049,29.2222,26.2489,31.3166,22.8792,53.0075,31.6693,23.96,27.3008,30.6728,21.9332,57.0894,21.1988,35.3662,47.9707,68.9069,39.02,22.83,47.7015,24.565,37.2761,33.3126,44.3137,18.5061,48.1328,23.79,35.2602,22.1675,35.5473,,14.3068,45.8867,,15.5,22.17,48.3443,10.45,2.965,31.2447,32.1369,24.3051,8.359999999999998,55.273,28.82,40.5341,29.5695,35.5521,17.4569,14.4533,18.6763,22.8223,33.9145,56.6308,9.420000000000002,43.5775,16.6612,62.8763,81.67369999999998,28.8463,45.2892,47.9452,40.43,51.6313,37.66,21.3817,51.856,68.0778,30.95,36.7415,41.1293,45.67,50.1535,16.3055,29.5532,45.6788,12.06,24.535,66.3166,,57.9,37.3637,15.1402,27.911,51.0214,30.84,,53.2004,64.5336,41.3921,,48.0859,16.2619,72.5608,27.021,49.2755,16.23,23.871,35.96,22.8683,62.3663,79.5
2005-01-10,22.6,28.7839,34.48,28.6441,20.0782,79.9415,44.8697,30.0314,39.9703,58.0,29.41,34.7294,21.4415,41.5381,34.24,45.295,31.6032,13.12,31.397,39.4233,40.0226,66.6377,31.9149,29.7613,12.13,50.1491,18.4192,16.031,20.13,63.64,,18.78,41.84,18.56,48.7352,22.3394,48.0386,30.7447,55.5999,81.29,39.2526,54.0048,18.9164,65.4189,39.7538,56.4747,9.02,46.2125,18.8,90.74,49.3697,43.8862,34.9088,39.91,39.296,36.2868,47.4342,61.9942,81.31669999999998,53.0663,64.4782,47.7993,40.9038,11.01,66.82,21.3445,31.7197,41.9931,17.25,28.0522,23.3726,44.9025,21.6744,46.85,101.3468,34.28,18.79,47.5374,55.2081,45.4893,28.3341,26.7132,55.1926,41.977,36.775,31.7194,11.0418,29.9396,,13.564,20.7032,55.2993,29.2364,41.8218,14.2,36.0754,15.8982,25.3848,26.3647,21.07,41.5981,43.1295,48.6568,55.8103,55.7106,21.9318,212.7053,36.1517,10.0891,10.0181,18.9649,79.12269999999998,28.05,37.6705,41.9182,46.8661,,28.5161,5.87,53.84,18.72,19.4297,43.6317,33.6685,19.76,57.3799,22.76,14.87,35.706,22.7791,48.6177,12.1689,32.7178,46.5956,38.5872,26.4392,67.5634,40.97,21.1002,16.05,44.9778,28.6198,55.2603,26.993,40.7818,38.3712,45.739,27.902,39.7362,16.61,13.6093,37.2088,4.31,53.655,33.5758,39.7382,21.8627,27.2533,29.4755,30.6665,44.482,14.08,49.4966,33.2578,33.092,10.35,,31.0928,59.36,19.235,30.7638,13.69,66.2243,63.862,41.4792,28.4779,,13.3782,32.1653,30.299,95.0472,36.2963,39.4476,28.838,34.969,39.53,43.167,50.7412,67.3601,70.641,35.7226,68.555,42.96,33.1874,80.02979999999998,49.3206,34.4711,57.19,31.989,16.78,49.0655,11.89,36.7523,25.68,195.06,40.8422,20.6259,30.4076,103.4247,14.59,60.6712,18.7871,121.4082,17.905,22.9789,11.3136,41.3421,26.2654,62.6706,66.6532,36.804,59.0774,32.8091,44.5857,13.97,20.3394,22.3127,32.2,15.6995,53.3134,30.65,25.66,93.816,,41.298,31.9913,22.5235,20.705,39.3318,13.19,37.192,40.9462,44.6483,18.44,23.26,19.7243,40.2564,23.2,22.765,61.4913,25.84,16.0,36.2273,36.5523,23.7968,43.0888,50.7723,31.0733,33.447,12.1,25.8995,41.928,62.2147,40.042,16.8057,47.27,27.1245,44.2709,54.0108,48.04,40.6738,68.079,35.8982,56.5243,69.8431,54.0687,44.5888,28.7678,5.86,21.8615,22.6217,21.8323,15.6473,83.79999999999998,28.4834,30.6915,34.2498,18.3322,61.0481,31.0334,24.2661,31.131,41.5537,51.1797,50.793,56.9322,39.976,45.3908,42.65,41.8361,49.12,37.5758,30.0976,80.7673,28.75,44.8703,27.5212,26.829,16.8075,30.4023,17.8761,45.1776,26.1303,103.0069,68.3911,9.0912,11.43,38.961,31.1319,17.0409,28.4215,23.6,34.087,24.0486,41.3806,20.2582,43.312,51.9926,16.83,6.21,35.5118,16.9139,30.73,45.0202,24.2174,7.2864,25.88,22.0027,17.0685,39.6161,,16.63,41.9959,29.1304,13.19,27.081,30.717,26.1045,42.5038,29.302,30.9855,34.367,32.4657,43.66,46.991,52.0989,25.6554,39.4869,54.3812,40.6259,21.4441,46.3307,31.6722,20.929,40.0369,27.4725,53.5473,39.243,19.4201,62.2671,23.801,52.6079,51.0038,25.0,42.2311,4.39,42.7899,16.875,45.6785,36.4865,25.0282,32.3439,28.6712,40.4,40.8407,41.717,45.9215,32.0025,30.8043,35.8931,22.2609,23.7394,48.4894,28.915,11.4116,22.3,25.7967,20.9669,91.97000000000001,41.711,29.0938,26.8631,31.5089,23.0618,52.968,31.6693,24.59,26.9773,30.9161,21.9728,57.0428,21.1334,35.4643,48.1094,69.159,39.64,23.1712,47.6917,24.75,37.6709,33.1066,44.3424,18.516,49.2799,23.66,35.6776,22.0084,37.1083,,14.4866,46.5293,,15.36,22.08,48.9952,10.56,3.0013,31.2447,32.1611,24.5725,8.21,55.3718,28.9,40.7006,29.6338,35.6386,17.447,14.6524,18.8146,22.5136,34.0453,56.0488,9.31,43.7623,16.7589,62.8763,81.7911,28.7611,45.7677,47.811,40.57,52.2405,38.18,21.6386,52.0522,67.6936,30.83,36.3873,41.2681,46.1,50.5009,16.2078,29.5342,46.5852,12.26,24.865,67.81,,60.35,37.4364,15.5056,27.8331,50.7663,31.14,,52.9673,64.8011,41.5592,,48.2633,16.4859,72.494,27.0704,49.4635,16.14,24.4785,36.32,22.8733,62.4047,80.26
2005-01-11,22.21,28.0093,32.28,28.7133,19.9799,79.4394,44.0463,30.004,40.3114,57.71,29.06,34.4057,21.1397,41.6161,32.39,45.0928,31.6032,12.98,31.1148,38.962,39.7332,66.0964,31.503,29.8106,11.67,49.9147,18.0698,16.0112,14.86,63.78,,18.71,41.64,18.6,49.1774,22.1168,48.4543,30.6018,54.5975,82.08,39.0177,54.4703,17.81,63.9465,39.1594,55.9975,9.06,45.7835,18.72,90.41,49.2148,43.7797,35.0369,40.23,38.9561,36.4425,46.597,62.093,80.5844,52.7243,64.3752,47.5909,40.6767,11.14,65.8,21.5121,31.6045,41.5375,16.94,28.1382,23.017,45.1371,21.4632,47.43,100.7738,33.9,18.5696,47.4121,54.3065,45.3764,27.8873,26.6027,54.725,41.3962,36.7846,32.0327,10.8075,29.8665,,13.415,20.6142,54.6176,28.8876,41.5825,14.105,36.3033,15.9775,25.3389,26.681,19.81,41.3193,43.0997,48.5701,55.8103,55.7012,21.9252,209.7337,36.6286,9.9695,9.9712,18.7476,78.91129999999998,27.845,37.3024,41.9035,46.6101,,28.3121,5.69,53.49,18.64,19.2069,43.6317,33.4696,19.06,57.3301,22.82,14.51,35.5014,23.3237,48.6366,12.1077,32.5828,46.35,37.8044,26.0521,66.6681,41.08,21.7074,16.1,44.6284,28.6051,55.6299,26.9237,39.9857,38.0761,44.7998,27.8723,39.4776,16.2,13.511,37.4857,4.35,52.42,33.2995,39.665,21.8029,27.1935,29.1904,30.3924,44.4919,13.68,49.0619,33.5297,33.3109,10.2907,,30.7336,59.84,18.9925,30.3954,13.28,66.4087,63.7154,41.2542,28.4182,,13.2678,32.2833,30.114,94.8682,36.2584,39.4569,28.6733,34.3814,39.2,42.8294,50.0678,67.6288,69.821,35.3135,68.066,42.71,33.0308,79.9906,49.3352,33.9815,57.06,31.7412,16.4,48.9503,11.76,36.7141,25.7195,193.54,40.6331,20.547,29.8854,102.6267,14.56,60.73,18.9609,118.9395,17.9242,22.9694,11.2299,41.253,26.1253,62.3098,65.7775,36.5139,58.1924,32.7129,43.7201,13.95,19.5966,22.2311,31.9,15.6128,53.7759,31.18,25.44,93.1492,,40.8252,32.3135,22.1888,20.285,38.8861,12.99,37.0882,40.5896,44.4819,18.12,22.82,19.4807,40.3058,22.08,23.005,61.2769,25.67,15.95,35.567,36.1989,23.8215,43.1279,51.2159,31.1022,33.2624,11.99,25.6358,42.0967,61.7522,39.8195,16.5765,47.11,27.0664,44.5499,53.9224,48.23,40.4551,68.1284,35.6934,56.6137,68.8295,54.167,44.3491,28.6385,5.54,21.7439,22.4055,21.4395,15.4075,82.98999999999998,28.4785,30.2746,33.8533,18.3225,60.5159,30.4749,24.0286,31.0614,41.1917,51.0117,50.3875,56.5312,39.2139,45.4155,42.25,41.5817,48.52,37.2151,29.6919,81.5081,28.93,44.4375,27.3226,26.829,16.4709,30.0838,18.0056,44.694,26.0621,102.1511,66.5178,8.9471,11.09,38.8718,31.1319,16.9815,28.2226,23.95,33.879,23.9937,42.1554,20.47,43.1066,51.8256,16.97,6.06,35.1986,16.3262,31.71,44.5744,23.4606,7.062,25.81,21.9557,16.8692,39.4986,,17.0,41.9417,29.4217,13.2,27.0616,30.7363,25.8588,42.9988,29.455,30.719,33.8561,32.1813,44.01,46.5322,51.8179,25.374,39.2302,54.3232,40.672,21.1422,46.0597,31.4082,20.528,39.181,27.0699,53.7099,38.9607,19.2073,61.7377,23.9634,52.4792,50.7818,25.48,42.1224,4.32,42.8792,18.205,44.833,36.0129,25.0479,32.2416,28.1461,40.55,40.7212,40.9848,51.4706,31.9164,30.646,35.5525,22.2908,23.8183,48.3337,28.695,11.0754,22.2,25.1734,21.0261,93.44,41.4789,29.2716,26.9076,31.287,22.6199,52.7804,31.4411,23.99,26.9185,30.8787,21.9926,56.5768,21.2969,35.425,48.1094,68.6741,39.0,23.0201,47.0926,24.35,38.0031,33.0772,44.237,18.0986,49.0505,23.46,35.3087,21.7875,37.1575,,14.4866,46.0881,,14.84,21.99,48.5317,10.5,2.9813,31.3339,32.132,24.4041,8.0,54.6704,28.85,40.5439,29.4113,35.8598,17.4964,14.7519,18.4687,22.2746,34.0162,55.7027,8.75,43.7174,16.8078,62.43,81.4781,28.5621,45.824,48.0123,40.36,52.0181,38.25,21.9054,52.2484,67.1501,30.44,35.9864,41.2978,47.16,50.6456,16.2163,29.4771,46.6936,11.77,24.7,68.913,,59.955,37.4182,15.5253,27.9791,50.6434,30.65,,52.8818,64.1898,41.5199,,45.6526,16.5419,72.34149999999998,26.6156,49.3349,16.17,24.597,35.66,22.9473,62.4431,79.92
2005-01-12,22.18,27.8015,32.73,28.7232,20.029,79.6954,44.6516,30.0223,40.5199,56.06,29.49,34.8765,21.0033,41.236,31.97,45.2582,31.7353,13.31,31.5444,39.1779,39.7082,65.7322,31.4762,29.5446,12.08,50.11,18.0398,16.3879,15.02,64.87,,18.54,42.3,18.88,48.7941,22.291,49.2066,31.1832,55.3011,83.01999999999998,38.724,55.3625,18.0175,63.9279,39.364,56.2312,9.02,45.6806,18.72,90.41,50.2994,43.6634,34.7807,40.92,38.7084,36.7797,46.666,63.942,80.26229999999998,53.6136,64.937,47.452,41.2197,11.32,67.11,22.0594,31.5182,41.4484,17.11,28.1859,23.0732,45.1665,21.3972,47.36,100.1695,33.49,18.7404,47.4313,53.9422,45.2353,27.6193,26.6672,54.4066,41.9089,36.6405,32.3605,11.1375,30.1932,,13.4945,20.6637,54.6566,28.8417,41.6782,14.87,36.8681,16.0468,24.5173,27.1784,21.14,41.059,43.5961,48.3391,56.1355,55.2621,21.912,204.4617,36.7551,9.8997,9.9806,19.1377,79.2766,27.45,39.5511,42.721,46.8169,,28.2926,5.75,53.79,18.93,19.1723,43.8003,33.2607,18.88,57.5493,22.88,14.58,35.7654,23.3088,49.668,12.064,32.8334,46.3697,37.7676,26.2407,67.3901,40.93,21.714,15.83,46.0161,28.4948,55.9895,27.4284,39.853,38.9025,45.4103,28.5541,39.4037,16.15,13.642,37.7925,4.44,53.625,33.2107,39.7931,21.7631,27.2334,29.2665,30.6371,44.739,13.83,49.0619,33.4111,33.7943,10.35,,30.7059,59.09,19.49,31.0127,13.32,67.2823,64.1064,41.5281,27.6371,,13.1667,32.9692,31.2824,93.9335,36.2963,39.4105,28.7701,34.9093,39.39,42.4355,50.5728,67.5136,70.383,35.484,67.7112,43.64,33.0768,80.0886,49.4963,34.2503,59.91,31.5484,16.57,48.9311,11.81,36.6568,25.769,195.38,40.7662,20.6851,30.6441,101.74,14.51,60.8478,19.6212,121.6081,18.2986,22.7497,11.0997,41.7377,26.5228,62.3878,65.7185,36.4655,58.7332,33.6558,44.6643,13.93,19.5868,23.0181,32.38,15.6706,53.835,31.49,25.98,93.3551,,40.7759,32.2158,22.7991,20.175,39.2655,13.0,37.3699,40.6292,44.5308,18.44,22.95,19.6057,40.839,22.48,22.845,61.7057,26.27,16.06,35.9316,36.2848,23.7228,43.0204,51.0138,30.8809,33.2527,11.17,25.4146,44.1112,62.2629,39.8195,16.6263,47.82,26.8047,44.3755,54.109,48.65,40.6539,69.4416,35.8982,57.3582,68.6307,54.8552,44.5121,28.5588,5.63,21.9203,22.4252,21.3251,15.2576,83.7,28.3301,30.3391,33.7855,18.5069,60.3681,30.7101,24.2167,31.0713,41.405,50.7547,50.4172,56.7757,39.6692,45.0062,42.3,41.3077,48.58,36.9324,29.8464,81.7487,28.99,44.4592,27.5311,27.1245,16.3027,29.9969,18.1783,44.775,26.1108,100.8331,65.4176,8.9297,11.33,39.8868,31.5417,17.3771,28.6254,24.24,33.6236,25.0315,42.4832,20.8015,43.3217,52.2186,17.425,6.05,35.1399,16.7844,31.7,44.4291,23.8826,7.0026,26.79,21.9933,17.198,39.3616,,17.05,42.4298,28.0429,13.48,27.5279,30.4471,25.9275,43.0654,29.5758,31.0902,33.884,32.9098,44.26,46.9817,51.9536,25.2576,39.8128,54.5259,40.3031,21.0774,46.3113,31.2338,20.4986,39.1023,26.9226,53.4009,38.8423,19.2443,62.4751,24.1396,52.4396,50.7722,24.95,42.3398,4.34,42.7602,18.575,44.9593,35.9761,25.6008,31.9347,28.4532,42.08,40.8208,42.0196,52.364,31.7731,31.3088,36.2434,22.6295,23.6309,48.881,28.51,11.1051,22.2,25.1085,21.1247,95.09,42.0881,29.2469,27.6852,31.5631,22.9657,53.7383,32.0306,24.49,26.9773,30.7945,22.042,56.3066,21.4082,35.1601,48.2283,68.2378,39.3,23.2492,46.2382,24.535,38.4991,32.469,44.3904,18.0787,49.8087,23.46,35.2602,21.9289,37.4234,,14.4014,46.0785,,15.19,22.035,49.0543,10.59,3.125,31.4034,32.1563,24.612,8.06,54.384,28.9,40.681,29.3223,36.0905,17.4667,15.1401,18.5676,22.2945,34.6943,56.3791,8.5,44.0071,16.8957,62.0612,75.4919,28.7516,45.9085,48.8656,39.92,52.1922,38.35,22.4093,52.4053,66.6254,29.93,35.6414,41.5456,48.5,50.1632,16.3437,29.0826,46.4227,12.06,25.19,69.1571,,60.85,37.2638,15.792,28.4659,51.1065,30.34,,52.6203,64.0178,41.7264,,46.7658,16.5233,72.57989999999998,26.6354,50.0672,16.21,25.1971,36.14,22.7643,61.8577,79.69
2005-01-13,21.71,27.8676,34.9,28.2483,19.8225,78.51399999999998,43.7953,29.6741,40.1693,55.55,29.11,34.4254,21.276,40.437,31.78,45.2582,32.0185,13.31,32.014,38.9914,39.2691,64.9644,31.7448,29.5938,12.26,50.3249,17.91,16.1103,15.16,63.89,,18.4,42.6,18.97,48.7646,21.9909,50.6221,31.2177,54.7807,79.98999999999998,38.9785,55.3819,18.3929,63.8254,39.1302,55.8709,8.98,45.3632,18.67,90.41,49.0308,43.1207,33.894,40.75,38.2514,36.7343,46.2523,63.8926,80.35989999999998,52.6754,62.3901,46.7673,41.3876,11.5,64.87,22.6215,31.1343,41.9535,16.91,27.9471,22.8299,44.4332,20.9286,46.48,99.0008,33.5,19.3743,47.3735,54.3703,44.793,27.4108,26.8421,53.8792,42.1312,36.4293,32.3027,11.1045,30.4516,,13.6038,20.357,54.8416,28.6949,42.2046,14.6,36.5609,16.1261,23.8932,27.218,20.51,40.7801,42.4643,48.0406,55.5903,54.5147,21.8856,204.8171,36.7745,9.7801,10.0555,19.8143,78.8632,27.51,40.1879,43.3721,47.0238,,28.0983,5.69,52.72,18.78,18.8059,42.2038,33.1613,18.535,59.1039,22.37,14.12,35.4024,23.1108,49.2611,11.9941,33.0069,46.0357,38.0807,26.4193,67.9196,40.29,21.6942,16.0,45.5093,29.8258,54.9406,27.4581,39.3222,38.568,45.4572,28.6035,39.5884,16.19,13.6584,37.6638,4.35,51.605,32.7963,39.8022,21.3946,27.1139,29.409,30.3533,44.7192,13.59,48.7027,33.0107,34.1632,10.5281,,30.9823,58.29,19.425,31.7892,13.24,66.729,64.3997,41.9878,27.07,,12.946,33.3928,31.3116,93.2276,36.7701,39.262,28.3149,34.6902,38.74,41.7509,50.8105,67.1393,70.2264,35.6544,67.2222,42.5,32.9847,79.87309999999998,49.6524,33.8183,59.32,32.117,16.255,48.5758,11.87,35.6351,25.7986,195.33,40.3479,20.4483,30.8708,101.4149,14.87,59.9062,20.1574,124.7565,17.8186,22.4441,11.0036,41.2728,26.9072,62.3098,65.3938,36.4268,57.8875,33.2709,45.0499,13.95,19.4988,22.6006,32.23,15.7092,53.3626,32.42,25.04,92.6099,,40.3621,32.6844,22.4644,19.59,38.8481,12.9,37.4441,40.3717,44.1541,18.32,23.15,19.6826,41.1747,21.76,22.955,60.3901,26.3,15.67,35.705,36.0747,23.6882,42.8349,52.2511,30.4672,33.175,10.98,25.5181,43.1189,61.2703,39.4132,16.5067,47.9,26.795,44.1463,55.0321,48.18,40.2563,68.9973,35.2449,56.0081,67.7662,54.4128,43.8984,28.0909,5.53,21.6165,22.2712,21.4544,14.9678,83.81,28.3647,30.8304,34.1918,18.2254,59.3038,30.2691,24.1573,31.3597,41.2314,50.6558,49.8535,56.3552,39.5207,44.7153,41.88,41.2,47.62,37.0689,29.3345,80.6229,28.48,44.9425,27.1439,26.9915,16.7778,29.5819,18.3701,44.9532,25.6136,99.1215,66.1411,8.8776,11.17,40.377,31.1986,16.8826,29.0432,24.685,33.2831,25.9346,42.0064,21.0041,43.043,51.5308,17.55,6.06,34.8855,16.3461,31.76,44.1577,24.4551,7.0752,25.96,21.6649,16.9888,38.7447,,17.0,42.3361,27.8098,13.48,27.6785,29.7818,25.6229,42.5514,29.2738,31.3091,33.8468,32.795,44.35,47.3843,51.2849,24.5783,39.5955,53.5803,40.4691,20.9227,46.55,31.9063,20.2933,39.0532,26.5103,52.7446,38.7057,19.2536,62.2955,24.4737,52.5089,51.0714,24.53,41.6875,4.15,41.7487,18.687,44.2693,36.2887,26.0747,31.0513,28.0074,42.7,41.7671,41.7365,52.7611,31.9547,33.0894,35.8055,22.3804,23.5223,48.2067,27.685,10.8579,22.55,24.6298,20.3749,93.84,41.6916,28.5456,28.3637,31.6469,22.7736,53.7185,31.5742,24.6,26.6636,30.7009,21.6761,56.9589,21.1792,35.2779,48.0698,67.4329,38.51,23.3614,45.6489,24.61,39.1009,32.8614,44.2562,17.9992,48.0529,23.94,35.3572,21.593,37.5022,,14.5055,46.1169,,14.86,21.84,48.5711,10.44,3.225,31.3934,32.132,24.5526,7.97,53.564,28.56,40.3578,29.0751,35.8501,17.3679,15.0854,18.4589,22.1053,34.5732,55.7656,8.5,44.162,16.5439,60.1497,74.4355,28.5147,45.9742,48.2233,39.04,51.2928,37.66,23.2047,52.5034,66.7659,28.56,34.5879,40.9113,48.5,49.565,16.1781,28.8259,46.137,12.12,25.755,67.6441,,60.665,37.0005,15.8019,28.5925,50.6907,30.4,,52.1289,63.5689,41.1463,,47.2683,16.682,73.23789999999998,26.0521,50.0276,16.01,25.4416,35.33,22.438,61.138,77.16
2005-01-14,22.05,28.2455,35.1,28.3324,20.1765,78.65179999999998,44.0046,29.7932,40.2736,56.51,29.115,34.955,21.3344,41.314,31.68,45.4971,32.6321,13.45,31.9465,38.9227,39.813,65.1022,32.103,30.1654,12.54,50.2956,18.0897,16.3879,15.16,63.81,,18.66,44.55,19.06,49.4624,22.1652,51.5526,31.7449,55.5999,81.34,39.3113,55.8085,18.6892,64.1609,39.6271,55.5495,8.97,45.2259,18.78,90.69,49.3019,43.4986,33.8447,41.17,37.8324,37.2402,46.7349,64.8714,82.38079999999998,52.9295,63.5512,46.5887,41.7331,11.55,66.58,22.5377,31.1919,42.3398,17.23,28.1382,22.858,45.0785,21.0012,46.95,99.6248,33.14,19.9611,47.3252,54.5342,44.7083,27.798,26.8789,54.1578,42.5078,36.8566,32.4521,11.2035,29.018,,14.1006,20.3174,55.7375,29.3741,42.4821,14.925,36.4123,16.4232,23.8702,27.4519,20.37,41.0497,42.9409,48.2139,56.0016,54.8604,22.1562,205.0837,37.1735,9.8299,10.2053,19.9032,78.9401,27.885,40.5063,43.5777,47.5458,,28.1955,5.73,53.66,18.88,19.0287,42.9673,33.2309,19.025,60.4791,22.54,14.43,35.475,23.2692,49.4882,11.9241,33.296,46.2321,38.2649,26.9453,68.1988,40.29,21.8658,16.17,45.8882,30.1126,54.8907,28.0023,39.199,39.4732,46.7627,28.396,39.9579,16.4,13.7129,38.1387,4.32,52.6,33.2107,39.7473,21.6038,27.4126,29.6562,31.2146,45.075,13.75,48.5799,33.5149,34.866,10.5479,,31.1758,59.84,19.3325,32.1675,13.22,67.2628,65.0058,42.0856,27.4431,,12.9276,33.7151,31.5453,92.7901,37.0733,39.1506,28.4021,34.9192,39.0,41.7416,51.979,66.7265,70.3922,35.6739,67.1072,42.17,33.5098,79.3344,49.467,34.0967,59.92,32.0109,16.335,48.6238,11.77,35.4537,25.423,199.97,40.8802,20.6653,30.9693,102.6759,15.32,61.4951,20.5049,127.3952,17.9146,22.4727,11.0966,41.441,27.2883,63.3726,66.6729,36.4268,58.0154,34.0021,45.6244,13.95,19.6161,22.7157,32.6,16.1332,53.9629,33.26,25.13,92.2667,,40.8646,32.6356,22.6613,19.865,38.8102,12.85,38.0373,40.7728,44.8195,16.88,23.18,19.6249,41.9745,22.24,22.93,61.1015,26.6,16.02,35.9908,36.1129,24.0583,43.2646,53.932,30.4865,33.2527,11.07,25.7064,44.5677,62.0316,39.6357,16.726,48.32,26.9113,44.6894,56.4953,48.27,40.6638,69.2243,35.9859,56.8321,69.7438,55.0518,44.1094,28.3049,5.56,22.0966,22.7364,21.4544,14.9678,83.56,28.8592,31.431,35.0333,18.5748,59.8557,30.6807,24.9193,30.8426,41.7025,50.6855,50.3776,57.2843,39.6593,44.7942,41.8,41.1217,47.42,37.0689,30.4356,80.79609999999998,28.95,45.7,27.4021,27.2871,16.857,29.7942,18.3701,45.4149,25.4673,99.1215,65.7645,8.9397,11.21,40.6295,31.3606,17.0211,29.3664,24.82,33.3115,26.0843,41.5892,21.1422,43.4978,51.7175,17.98,6.37,35.4433,16.7545,32.04,44.6326,25.372,7.0983,26.8,21.5898,16.7995,38.9405,,17.23,42.7257,28.1594,13.63,28.2371,30.0229,25.6524,43.0749,29.6282,31.7849,34.1347,33.5185,45.24,47.581,51.1977,24.5007,39.7634,53.918,40.6166,20.9277,47.3693,32.8727,20.6355,39.3089,26.6379,52.7446,38.7967,19.3831,62.513,24.6175,53.3304,51.3802,24.34,41.6974,4.19,41.8578,18.88,44.6094,36.6658,26.3018,31.2279,28.3641,43.11,41.9663,42.0099,53.3766,32.0598,33.2971,35.7666,22.6095,23.7493,48.539,28.105,10.9963,22.79,24.6148,20.0295,95.06,42.3201,28.8913,28.4479,31.7356,22.9081,54.2813,31.945,24.91,26.7617,30.8225,21.7157,57.8815,21.5194,35.6899,47.8319,67.5202,38.65,23.7514,45.8453,24.73,39.4476,32.3807,44.9845,18.0191,48.6615,24.51,35.0951,21.5753,36.4484,,14.7042,46.6924,,15.2,22.255,49.0642,10.59,3.2362,31.2744,32.4866,24.7209,7.929999999999999,53.5047,29.24,40.299,29.2432,36.0424,17.2296,14.7071,18.5676,22.3742,34.8832,55.9701,8.449999999999998,44.7415,16.6124,60.0042,74.28879999999998,28.6,45.7959,48.3863,39.72,51.786,37.99,23.7234,53.455,67.7498,28.99,34.3455,41.2582,48.66,49.7194,16.4074,28.8496,46.7429,12.25,26.25,67.6148,,61.25,37.5272,15.6537,28.5146,51.0214,30.51,,52.2849,63.6357,41.569,,49.7016,16.7567,73.4858,26.2202,50.5423,16.16,25.8491,36.7,22.3391,60.994,78.77
2005-01-18,22.43,28.1227,35.325,28.6688,20.5993,80.7291,43.8048,30.233,41.2401,56.7,29.19,35.3767,22.5808,43.0094,32.24,45.8096,32.8586,13.82,31.6043,39.2859,40.4319,66.6377,32.7746,30.5103,12.86,50.3835,18.4791,16.3879,15.5,64.16,,19.0,44.58,19.04,49.5115,22.1652,51.909,31.8976,55.9275,81.92,39.1351,57.1662,20.7932,64.5429,40.2215,55.4132,8.97,45.5948,18.78,91.25,50.2413,44.3126,34.5246,41.58,38.0133,37.4413,47.7986,65.7514,82.3906,53.7602,64.0007,47.3429,42.0392,11.51,67.8,22.6117,31.6142,42.6864,17.0,28.0904,22.858,45.8997,21.5226,47.9,100.7836,33.53,20.0131,47.3542,55.117,45.3294,28.2646,27.4404,54.2275,42.9449,37.6775,32.7028,11.4939,29.4179,,14.1305,20.5351,56.3996,29.2823,42.7788,14.85,37.0266,16.6907,23.9941,27.3234,20.37,41.6446,43.5366,48.2717,56.5181,55.6452,22.1496,203.7311,37.5676,9.8698,10.196,20.16,79.7187,28.31,40.6257,44.1162,48.4027,,28.8173,5.78,54.65,18.74,19.1821,43.3541,33.4994,19.415,60.6385,22.76,14.77,35.607,23.5168,50.2358,11.758,33.561,46.6447,39.0016,27.1041,68.0159,40.3,22.6512,16.2,45.7406,30.0023,54.9206,28.4377,39.6445,39.0993,46.9318,29.0678,40.4105,16.35,13.8603,38.9796,4.35,53.185,33.7534,40.2507,22.0121,27.9304,29.9508,31.058,45.836,13.9,48.4475,33.673,35.6984,10.6271,,31.5074,60.81,19.385,32.4463,13.57,67.059,65.4847,42.4181,28.06,,12.946,35.1794,32.071,93.3171,37.3577,39.6425,28.712,35.5268,39.16,44.2361,52.0087,66.9089,70.77,36.0879,67.2414,41.79,33.8506,80.7154,49.9792,34.5191,61.0,32.2808,16.755,49.7569,12.23,35.11,25.6998,203.9,41.2035,20.7146,31.0284,103.4444,15.36,61.7304,20.7631,128.0848,18.1834,22.7497,11.1772,41.6981,27.3958,64.338,67.4305,37.0941,58.9102,34.4928,45.8998,14.24,19.968,22.6918,32.01,16.2585,54.9174,33.26,24.91,93.0512,,41.3769,33.0652,22.5825,19.515,38.4593,13.27,37.8445,40.9709,44.7021,17.8,23.53,19.6986,42.5176,22.24,23.24,61.4231,26.46,16.02,36.2371,36.6764,23.9991,43.9287,54.001,30.7366,33.447,10.98,26.1726,44.8853,61.7811,39.9066,16.9453,48.25,27.1342,45.133,56.7899,48.37,41.3199,70.0241,36.1127,57.1199,71.3934,55.5728,45.5669,28.5886,5.7,22.4004,23.3589,21.3102,14.9879,84.75,28.6614,31.8032,35.4299,18.7301,61.5999,30.9648,24.9292,31.0812,41.7521,51.6246,50.526,57.7049,40.6094,45.4402,42.21,41.337,47.98,37.8779,30.6481,78.91979999999998,29.49,46.14,27.7198,28.3953,17.2529,30.2092,18.5907,45.7227,25.6623,100.1347,66.3295,9.0365,11.2,40.8226,30.5316,16.853,29.7245,24.8,34.3992,26.1691,42.1753,21.1238,43.3755,51.7765,17.985,6.26,35.5998,16.9736,33.36,45.5822,25.1925,7.210499999999999,26.82,21.618,16.8493,39.293,,17.39,42.9328,28.6158,13.78,28.3489,30.341,25.7507,43.2273,30.0791,31.9562,34.6363,34.6211,45.54,48.2833,51.8373,24.5492,40.6323,54.0242,40.9855,21.6362,42.6343,32.8827,20.616,39.4958,26.8048,53.4009,38.7967,19.5682,62.598,24.5201,54.4885,53.1463,24.29,41.9149,4.45,42.2644,19.15,45.0954,37.1992,26.361,30.8374,28.6514,43.44,41.9663,42.3027,55.0641,32.2127,33.2774,35.9904,23.0079,23.6407,49.096,28.975,11.2633,22.99,24.9988,20.0591,94.2,42.6585,29.4,28.5568,31.7948,23.3403,53.6,32.5535,25.16,27.3204,31.0658,22.0722,58.5432,21.7549,36.0136,47.9211,68.2184,39.15,23.9854,45.6881,24.95,40.0013,32.3121,45.0324,18.4464,49.8186,24.96,35.3767,21.9908,36.7341,,14.8461,46.9993,,15.34,22.11,49.508,10.31,3.125,31.6414,32.4137,25.1764,8.0,55.0755,29.37,40.5929,29.525,36.4751,17.526,15.0207,18.3897,22.404,34.9607,56.442,8.31,44.3618,16.6905,60.3535,73.653,29.3958,46.6403,48.9903,39.98,52.8111,38.85,24.1779,53.7886,68.4526,29.37,35.1287,42.7745,48.18,51.1184,16.4753,29.2157,48.0286,12.2,26.54,68.7373,,61.7,37.7906,15.7624,28.4367,51.4939,30.77,,52.5267,62.757,43.9484,,49.544,16.9713,75.4884,26.8628,50.9678,16.3,25.8417,37.18,22.5023,63.6618,80.76
2005-01-19,22.06,27.5653,34.94,28.4462,20.3043,80.0892,43.8143,30.0589,41.5528,56.05,28.94,34.4646,22.6977,42.7951,31.62,45.8739,32.802,13.69,31.8716,39.3252,39.9278,65.9585,32.8373,30.0668,12.25,49.4947,17.8801,15.8724,15.5,63.48,,18.87,43.96,19.09,51.2314,22.1458,51.582,31.7794,55.118,80.37999999999998,39.1743,56.2449,20.8426,65.1673,40.2215,55.2281,8.9,45.5176,18.6,91.17,49.7862,43.5762,34.83,41.51,37.5276,37.1948,46.9812,65.8008,81.26779999999998,53.3595,63.3733,47.4421,42.1281,11.36,66.93,22.7793,30.2321,42.7557,16.53,27.8802,22.9422,45.577,20.9418,47.38,100.328,33.4,20.3176,47.3638,55.0988,45.207,27.7285,27.5601,53.929,42.4716,37.2262,32.0857,11.286,28.6718,,14.051,20.4559,56.9157,28.8417,42.6831,14.7,37.3238,16.6312,23.8151,26.994,19.11,41.4122,41.5906,48.2043,56.6138,55.1687,21.7932,201.648,37.4411,9.82,10.3364,19.8687,78.9209,27.75,40.8147,43.7001,47.6344,,28.5841,5.68,53.48,18.15,18.9594,42.769,33.4497,19.215,60.8378,22.45,15.07,35.442,23.398,49.8573,11.7143,33.2141,46.5366,39.0385,27.3324,67.4382,40.06,22.407,16.31,45.4207,30.1493,54.5211,28.2002,38.9905,38.4303,46.2743,28.6529,40.2627,16.13,13.8221,39.0489,4.3,51.525,33.8027,40.0127,21.4643,27.7113,30.0744,31.195,45.7075,13.36,48.9674,33.2677,35.3395,10.7458,,31.5259,60.24,19.12,32.755,13.18,66.632,65.1915,42.2029,27.3635,,12.8081,34.2216,31.7692,92.7205,37.2439,39.9488,28.1502,35.0387,38.67,43.7766,51.3849,64.7298,69.9592,35.9418,66.5511,42.59,33.4637,79.5793,49.2622,34.0199,59.78,32.7722,16.65,50.1025,11.93,35.0527,26.2434,197.3,40.6331,20.6061,30.9594,102.5183,15.24,61.0733,20.9518,126.3557,18.1546,22.6351,11.0315,41.3421,27.2883,64.104,67.0566,36.8523,58.7135,34.031,45.9313,14.2,19.8214,22.519,31.68,16.1429,55.0847,32.94,24.51,91.2862,,41.1109,32.7528,22.2478,19.05,37.6531,13.32,37.6764,40.8521,44.6434,16.68,22.5,19.4999,42.093,21.12,23.0,61.2184,25.74,15.66,36.0203,36.1416,23.7425,43.6064,54.0158,30.525,33.3498,10.93,26.2243,43.5158,61.6751,39.7615,16.9552,47.51,27.1342,44.52,56.564,48.35,41.131,69.2639,36.6684,56.5839,70.5686,54.9437,44.8861,28.4343,5.58,22.5866,23.1066,21.151,14.3783,83.48,28.2214,31.694,35.0429,18.4389,60.7426,30.9844,24.6521,30.1961,42.3174,51.1303,50.5062,57.1767,40.7975,45.7015,41.67,41.6502,47.55,37.6927,30.6674,79.0642,29.55,45.8514,27.3326,28.7696,16.0354,29.939,18.4421,44.8965,25.3308,99.2592,65.705,9.0415,11.01,40.9216,29.2356,16.6749,29.6748,24.8,34.1343,26.3437,42.0362,21.1514,43.3022,51.0593,17.855,6.16,35.365,16.5453,32.34,44.4775,25.0178,7.0455,26.0,21.5804,16.6799,38.9797,,17.33,42.3657,28.6449,13.47,28.3197,30.1771,26.3207,43.0559,29.5758,32.137,34.3484,34.1821,45.31,47.7402,52.3606,24.1417,40.0399,54.9355,40.7089,21.3094,42.8214,33.1368,20.1646,39.7713,26.5103,53.0824,38.6965,19.5867,62.8817,24.4737,54.3004,52.8471,24.42,41.3317,4.53,40.7273,18.395,44.2887,37.3187,26.756,30.9211,28.4532,43.55,41.3487,42.127,54.5281,32.3753,32.9311,36.1655,22.8287,23.2066,46.5259,28.875,11.115,22.66,24.535,19.7039,93.06,41.9817,29.7704,28.5073,31.9673,23.3211,52.2768,31.945,23.86,27.0263,30.86,22.0524,58.6177,21.3885,35.8272,47.5445,68.2378,38.67,23.9805,44.2543,24.755,40.3864,32.1747,44.2658,18.3868,50.507,24.91,34.9689,21.9112,36.7094,,14.8556,46.6924,,14.36,21.955,49.2516,10.27,3.1425,31.2447,32.4235,24.8992,7.75,55.2632,28.65,39.8974,29.3421,35.5714,17.5853,14.8714,18.281,21.8265,34.3795,56.3319,8.26,44.102,16.4951,59.8489,73.9171,28.9505,46.3964,48.439,39.4,52.5887,38.21,24.0445,53.8867,68.6682,28.44,34.1684,42.6456,47.45,51.157,16.0592,28.997,47.4818,11.75,26.73,66.8242,,61.8,37.7815,15.6043,28.0862,50.823,30.35,,52.8231,62.4608,43.6927,,49.3667,16.906,74.64919999999998,25.9928,50.5225,16.05,25.5527,36.45,22.6852,63.6234,80.27
2005-01-20,22.25,27.1119,35.23,28.6985,19.9602,79.6954,43.5289,30.0131,41.3917,55.43,29.035,33.984,22.7171,42.3858,31.62,45.8739,32.7548,13.81,31.5119,39.2565,39.3938,65.5058,32.3537,30.1555,12.31,48.9965,18.1896,15.7733,15.64,62.56,,18.67,42.36,18.86,50.5827,21.8264,51.1855,31.4887,55.2914,79.53,38.8121,55.857,20.734,64.7666,40.3871,55.9196,8.599999999999998,44.9514,18.63,90.27,49.2923,43.9056,34.5246,40.98,37.3467,36.2868,47.385,65.3747,81.57049999999998,53.2129,62.4088,47.452,41.9701,11.12,64.83,22.2912,29.7009,41.8545,16.73,27.7178,22.8673,44.9807,21.0342,47.25,99.0999,33.29,20.3152,47.1323,55.0624,44.953,28.0561,27.5325,54.2275,41.8078,36.4389,32.0857,10.956,28.3451,,13.9715,20.5351,56.3022,29.0804,42.8266,14.57,36.66,16.4628,23.682,26.7074,18.62,41.1055,39.8829,48.2524,56.8242,55.3836,21.6084,194.5397,36.8183,9.9296,10.3458,19.7452,75.61409999999998,27.4,40.755,42.9462,47.073,,28.4481,5.8,52.4,18.32,18.5832,42.6103,33.032,18.5,59.054,22.28,14.74,35.6994,23.141,49.1665,11.5744,32.9346,46.3893,38.8819,25.5559,66.6969,40.1,22.4532,15.95,45.0172,28.8404,53.8418,28.22,38.9905,37.9875,46.1429,27.7637,40.1796,16.1,13.8385,38.8411,4.2,41.665,33.6745,39.9487,21.5838,28.0001,30.0079,31.0482,45.7767,13.16,49.8841,32.6351,35.4492,10.637,,31.231,59.3,18.91,32.964,13.04,64.914,65.0546,41.6944,27.4232,,12.3759,33.8717,31.5745,91.05,36.8175,39.7817,28.0921,34.9591,38.76,43.4109,50.662,63.549,69.8394,36.0928,65.1704,41.4,33.3992,79.0014,49.2134,33.9527,59.04,32.3193,16.725,50.2657,11.66,34.6134,26.2434,193.92,40.4619,20.5667,30.7427,101.8681,14.79,60.426,20.7482,123.0674,18.6634,22.7306,10.9664,40.6992,27.1743,63.0606,65.8759,36.5816,57.5237,33.8386,45.3175,14.06,19.5672,22.447,31.67,16.0272,55.3011,32.42,24.13,91.1882,,41.1404,29.3359,22.2281,19.485,37.6152,13.24,37.0387,40.4559,43.7383,16.96,22.25,19.2596,41.5697,20.72,22.735,60.8968,25.44,15.3,35.2221,35.578,23.7474,43.2841,52.2757,30.4961,33.1459,10.91,26.0172,42.9799,62.1473,39.984,16.9054,46.98,26.8628,44.1911,54.4036,48.34,40.0675,68.7899,36.6587,56.0181,69.714,54.0687,44.1381,27.9963,5.51,22.5572,22.5628,20.778,14.0486,84.12999999999998,27.3462,31.3813,35.0429,18.3225,60.0922,30.8179,24.6125,30.8326,42.3223,50.7942,51.5842,56.6095,39.9364,45.7163,41.75,41.6013,47.65,38.0729,30.4356,79.8147,29.4,45.5196,27.3127,28.7647,15.6098,29.6591,18.1015,44.4267,25.2138,98.9248,64.5156,8.7931,11.02,40.7038,28.5781,16.7145,29.2123,24.45,34.1816,26.1142,41.48,21.087,42.4464,50.4698,17.94,6.09,34.6702,16.2365,32.08,43.3632,24.6394,7.062,25.83,21.5335,16.5803,38.5685,,17.11,41.9417,28.5187,13.28,27.9311,29.8782,26.2027,42.2753,29.0886,31.9276,33.9954,33.9975,45.77,47.3188,51.8954,24.2387,39.4178,54.9549,40.5337,20.8678,41.8537,32.1703,20.2137,39.2892,26.2255,52.7446,38.5782,19.6514,62.8155,24.5665,53.5284,52.6444,24.15,40.8969,4.4,37.4647,18.8,43.6667,36.8175,27.1311,30.6979,28.4433,43.23,40.3427,41.8341,54.3295,31.7826,32.2683,35.9028,22.6593,23.0882,45.3239,28.305,11.0556,22.5,24.4154,19.7927,92.38,43.403,30.3729,28.1804,31.8046,23.5708,51.1807,31.3841,24.1,26.9479,30.7851,22.3594,58.3195,21.0549,35.7488,47.5544,69.4208,38.2,24.0098,43.8909,24.705,40.0013,31.5469,43.9974,18.5955,50.0581,24.04,34.7068,21.6284,36.3943,,14.8177,46.7595,,14.18,21.6,49.2615,10.24,3.06,31.5026,32.1126,24.8496,7.63,55.0854,29.82,39.868,28.8724,35.0522,17.3482,14.7768,18.36,21.2888,34.0308,56.2533,8.25,43.2777,16.2312,59.1212,73.57479999999998,28.7232,46.0867,47.8302,39.0,52.0568,38.26,23.7728,53.4943,68.3964,27.85,33.8141,42.6853,47.82,51.3114,15.9785,28.7784,47.3241,11.6,26.475,66.6777,,60.02,38.2992,15.4957,27.9889,50.4355,30.37,,54.3361,62.2794,44.2335,,49.4455,16.8313,73.1902,26.408,50.1959,15.82,25.2564,35.78,22.5715,63.4219,81.09
2005-01-21,21.8,27.3291,35.245,28.2038,19.8127,78.21859999999998,43.7477,29.9948,40.5862,52.05,28.535,33.8074,22.0647,41.733,31.32,45.3869,31.8392,13.81,31.7892,38.8834,38.805,65.0825,32.6761,30.8946,12.2,49.0551,18.0398,15.456,15.49,62.57,,18.5,41.16,18.69,49.4526,21.6812,50.9376,31.4837,54.7132,77.61,38.2737,55.9637,21.4847,64.8877,40.0168,56.1825,8.599999999999998,44.5482,18.76,90.03,48.4885,43.6924,34.4556,40.15,36.9944,36.1895,47.1781,65.6223,80.9847,52.8513,60.8545,47.2833,41.8615,11.1,64.83,22.5919,29.7975,42.3794,16.5,27.5172,22.6147,44.9905,20.1234,47.09,98.2977,32.91,20.3894,47.0358,55.0624,45.1035,27.9171,27.6153,54.0484,41.4133,36.122,31.9845,11.0649,28.3646,,13.9417,21.2176,55.3187,29.3466,42.7214,14.38,37.0068,16.7006,23.5948,26.4109,18.97,40.715,39.4162,47.9444,56.6233,54.3746,21.747,189.7811,36.3804,9.9396,10.2896,19.76,75.3545,26.87,41.0734,42.7357,45.8122,,28.2052,5.74,51.5,18.01,18.4743,42.4715,32.6142,17.93,59.0242,21.92,14.63,35.607,22.7543,49.1854,11.5657,32.8912,45.8785,38.7898,25.7246,65.4647,40.04,22.3278,15.9,44.2839,28.5242,52.9627,27.8539,38.5167,37.9285,45.8517,27.3882,39.8286,16.1,13.6693,39.0192,4.16,43.025,33.2502,39.7199,21.285,27.8806,30.0364,31.244,45.3122,13.09,50.3095,32.2199,35.7133,10.7755,,31.056,58.26,18.4625,33.1034,13.1,63.4775,65.2012,41.4107,27.0749,,12.0541,34.3874,30.8832,89.827,36.7132,39.9488,27.6174,34.7698,38.69,43.1483,50.0876,62.2531,73.62619999999998,36.3412,63.9527,40.4,33.6571,79.3442,49.0232,33.7224,59.17,32.0399,16.445,49.8433,11.52,34.3365,26.2731,188.28,40.2528,20.5765,31.0186,102.0461,14.52,59.6414,20.7532,122.7376,18.7691,22.5396,11.109,40.4519,27.4479,62.8851,65.256,36.4558,57.4352,33.6654,45.2467,14.12,19.5379,22.5142,31.18,15.9212,55.0059,32.86,23.42,90.5803,,40.7464,29.1895,22.0706,19.17,37.084,13.15,36.495,40.0201,42.9066,16.68,22.3,19.1827,41.2241,20.0,22.5,60.2732,25.0,14.9,32.9554,35.196,23.3724,43.2646,52.2018,31.2946,33.0001,10.59,25.8807,44.0715,61.4631,39.5776,16.7559,46.18,26.6109,44.1264,53.8242,47.25,39.5406,68.7208,36.2784,54.9162,70.2605,53.823,43.6395,27.8271,5.45,22.4984,22.3727,20.7333,13.8288,83.90999999999998,27.2671,31.019,34.9366,18.2934,59.836,30.6219,24.6719,30.6834,41.9901,51.1699,51.416,55.6901,39.8671,45.381,41.15,41.2,47.52,37.8487,29.9527,78.1982,29.51,45.2671,27.3624,28.4298,15.4712,29.302,18.255,44.127,25.009,98.9543,63.4848,8.6441,10.41,41.1494,28.378,16.3683,29.257,24.575,33.9168,26.1491,42.215,20.9304,42.2019,50.6073,17.985,5.95,34.5626,15.9676,31.49,42.9174,25.0372,7.0752,25.27,21.2896,16.8493,38.6272,,16.95,41.4486,28.4507,13.31,27.9942,29.4154,26.0553,42.361,28.4928,32.3559,33.8004,34.1471,45.75,47.094,51.9148,23.7535,39.3882,53.9372,40.0819,20.6558,41.4151,32.0807,20.3707,39.5352,26.0193,51.0073,38.3778,19.4756,63.2315,24.3531,53.37,52.5962,23.91,40.6696,4.38,37.4846,18.925,43.0253,36.4405,27.5952,30.5677,28.1957,43.27,39.9542,41.3948,52.9894,31.6392,32.021,35.7666,22.6095,22.7034,44.8744,27.84,10.8282,22.04,24.0513,19.7236,91.67,42.9196,30.3976,28.3092,31.8687,23.7437,50.371,31.926,23.16,26.2911,30.7757,22.4287,57.8256,20.767,35.3662,48.0797,68.9069,37.48,24.4095,44.1953,24.655,39.9627,31.4194,44.6012,18.2576,49.3398,23.39,34.6679,21.7256,36.675,,14.6758,46.3854,,13.88,21.44,48.4232,10.23,3.1212,31.324,31.8163,24.7209,7.59,54.2555,29.94,39.388,28.6203,34.8022,17.3284,14.956,18.3699,20.9403,33.5415,55.451,8.12,44.3868,16.329,58.6166,73.3498,28.3821,46.3119,47.974,38.96,51.0317,37.54,24.0445,53.5139,68.2652,28.13,34.0286,41.8429,47.69,51.35,16.0295,28.5787,46.2503,11.52,26.46,65.9359,,60.225,37.9995,15.6932,28.096,50.0953,29.99,,55.0614,60.3594,43.2601,,49.5736,16.8407,71.7121,27.0408,49.9188,15.74,25.5379,35.3,22.5072,63.086,80.5
2005-01-24,21.44,27.2158,35.38,28.4808,19.7734,77.77559999999998,43.7002,30.1872,40.0177,52.89,27.695,33.3955,22.24,42.1422,27.58,45.9566,31.9902,13.89,31.5069,38.854,38.5505,65.3384,32.4612,30.5202,12.12,49.016,17.8501,15.0396,15.16,62.12,,18.29,40.38,18.56,48.804,21.4005,51.4135,31.5576,53.9614,77.15,37.9017,54.9261,21.1686,64.1236,40.1825,54.6341,8.66,45.123,18.71,89.04999999999998,48.0721,43.8184,34.4851,39.9,37.0134,35.7745,47.0107,64.6219,80.61369999999998,52.8806,60.8357,47.0849,41.901,11.05,63.0,22.9864,29.585,41.8941,16.46,27.3069,22.3995,43.6511,19.8132,46.81,98.466,32.2,20.3746,47.2867,54.2519,45.5082,27.381,27.2931,53.8294,40.8982,35.9876,32.0568,11.0022,28.0818,,13.5342,20.9505,53.8094,29.42,43.2477,13.99,36.9672,16.8393,23.425,26.3746,18.69,40.6314,39.3368,47.6542,56.2694,54.2905,21.78,182.6827,35.9571,9.82,10.3926,19.5921,73.778,26.41,41.1729,43.3084,45.7235,,28.4189,5.7,51.0,17.75,18.3109,42.5905,32.6938,18.125,59.1936,22.02,14.18,34.7688,22.3675,49.7437,11.5482,32.9828,45.191,38.403,25.6055,65.1373,40.0,22.1232,16.04,44.2544,28.9434,52.8629,27.656,38.2323,38.1843,45.2037,27.4178,39.7177,15.91,13.893,39.2072,4.09,41.185,32.9641,39.8846,21.5639,28.259,30.3691,31.0482,45.0948,12.84,50.0732,32.1705,35.9526,10.7359,,30.6783,57.67,18.5125,33.5813,12.92,62.8951,66.4818,41.9095,27.1993,,12.0174,34.3966,30.5619,91.9151,37.1871,39.9117,27.8499,34.4511,39.45,43.7109,49.8797,62.4931,74.3541,36.3607,63.8184,39.59,33.7032,78.79569999999998,48.2867,33.8471,57.64,31.6544,16.13,49.7761,11.25,34.7758,26.3719,180.72,40.0341,20.5174,31.2058,101.9572,14.39,58.8666,20.8525,120.4088,18.2506,22.2531,11.0842,39.9475,27.4284,62.0952,65.0002,36.4655,57.0616,33.8386,44.1765,13.91,19.4402,22.5238,30.79,15.9501,54.4155,32.68,23.15,90.0018,,40.3129,29.2871,21.6473,19.065,36.771,13.16,36.1193,39.8566,42.7109,16.36,22.11,18.9071,40.76,19.2,22.38,59.9223,24.06,15.1,32.0783,35.2247,23.0121,43.2841,52.1673,31.7275,32.4464,10.58,25.5417,43.6547,62.0605,39.626,16.9453,45.74,26.7369,44.0267,53.3135,46.92,40.4551,67.6051,36.0152,54.4397,74.5338,53.5477,43.582,27.419,5.21,22.3612,22.6217,20.6139,13.7788,85.01999999999998,27.0199,30.7312,34.8979,17.9634,59.3925,31.102,24.6026,30.6834,41.3703,50.8535,50.7831,55.5532,39.877,44.9421,40.97,41.5915,46.54,37.8585,30.001,78.53499999999998,29.38,44.8415,27.4517,26.6467,15.1347,28.8098,18.4996,43.7949,25.0285,99.2986,62.9693,8.5199,10.06,41.496,27.7681,16.1705,29.2719,24.475,34.3235,26.2938,41.917,20.912,42.2068,50.3912,18.13,5.76,32.5957,15.6986,30.62,42.8108,24.848,6.7914,24.66,21.4022,16.7895,38.6762,,17.0,41.4289,28.2177,13.24,28.0768,29.6469,25.6327,41.9612,27.7842,32.7365,33.4381,33.728,45.16,47.5342,51.6628,23.5401,39.3586,53.5107,40.4046,20.8479,40.7635,31.6523,20.3707,39.2105,25.764,51.5768,38.7785,19.6329,62.9195,24.599,53.2215,52.3935,23.57,40.5905,4.41,36.2351,18.345,42.7726,36.5554,27.7038,30.6328,28.3938,43.34,38.8784,41.2386,52.0166,31.2473,31.8232,35.5136,22.6494,22.4764,44.6007,26.955,10.9271,22.02,23.9067,19.7631,86.4,41.0148,30.3037,28.8193,32.4356,23.9646,50.1636,31.0703,22.62,26.1931,31.1875,22.5476,56.9869,20.7735,35.5329,47.4751,69.0911,37.85,24.9019,44.2248,24.47,40.0013,31.4194,44.285,18.5756,48.422,22.5,34.4835,21.6903,36.7439,,14.7893,46.7499,,13.56,21.11,47.9892,10.16,3.2075,31.2843,31.4277,24.4338,7.65,53.8505,29.78,39.2803,28.6648,35.5425,17.3185,14.8764,18.2019,20.6814,33.2316,54.9791,8.05,44.0871,16.329,57.1903,73.7508,28.42,46.265,47.4563,39.1,50.9446,37.72,24.1384,53.4354,68.3214,27.09,34.3549,41.3275,47.5,51.2535,15.8511,28.4979,44.6986,11.38,26.59,66.0042,,59.485,37.391,15.5944,28.0181,50.152,29.61,,55.1004,59.2418,42.9062,,49.6228,16.8873,71.7979,26.5563,50.6017,15.29,25.6787,33.93,22.4874,62.539,79.98
2005-01-25,21.8,26.8001,36.025,27.9614,19.5472,78.36629999999998,43.6811,30.2696,40.3683,52.77,27.79,33.6407,22.055,42.5125,29.48,45.4604,31.6976,13.65,31.0498,38.9423,37.9267,65.9487,31.5926,30.8454,12.26,48.7914,18.2994,15.5155,15.75,62.17,,18.09,40.94,18.72,48.686,21.1198,51.9191,31.7892,54.8385,77.4,38.4206,55.9346,21.5835,61.943,39.6466,59.4255,8.599999999999998,45.8436,18.48,89.62,48.2657,44.1769,33.9531,39.87,37.0039,35.0416,47.0205,64.0276,81.385,53.0565,60.7327,46.9955,42.0589,10.96,63.08,23.1984,29.4498,41.597,16.46,27.7273,22.4463,45.6455,20.3214,46.62,97.9114,31.88,20.0676,47.3638,53.0861,45.6493,27.0335,27.0814,53.72,42.0028,35.8628,31.7338,10.89,27.6332,,13.3752,21.3165,53.6828,29.6679,42.8554,14.2,36.016,16.9779,23.6453,26.2923,18.69,40.7429,39.6645,48.1766,56.2312,53.0479,21.879,183.3837,35.7673,9.8997,10.299,19.4686,74.07599999999998,27.32,40.4764,43.5189,46.3736,,28.2538,5.67,50.67,17.51,19.2861,42.9475,32.7634,18.03,59.1437,22.37,14.0,35.442,22.5956,50.1885,11.4958,32.949,45.7509,37.2979,25.6055,65.5802,40.35,21.879,16.1,43.8017,28.8184,53.8318,28.497,37.7679,38.4598,45.7484,27.8921,39.5053,15.85,13.7239,39.4644,4.19,40.02,33.0331,39.6009,21.5539,27.9802,30.1409,30.8818,44.8576,12.48,50.1015,32.6203,35.8429,10.6469,,30.0426,57.54,18.3075,33.4718,13.39,64.2054,66.4916,41.5868,27.4232,,12.1645,33.9085,30.6593,93.9733,36.9407,39.9303,28.1599,34.8595,39.41,43.3733,50.3055,61.7347,75.8743,35.9613,63.1569,40.19,33.4453,78.5411,48.1745,34.2695,57.93,30.6715,16.01,49.8241,11.51,34.8522,26.3423,177.12,40.1197,20.8922,31.3831,101.5819,14.62,58.9352,21.1504,120.3388,18.4618,21.9188,10.8983,40.1255,27.5163,61.2957,65.5512,36.3785,57.5336,33.752,44.0034,13.95,19.2154,22.7013,30.85,15.6031,55.3208,32.8,23.47,90.394,,40.2341,30.361,21.9131,19.295,36.7521,13.15,36.4159,40.5103,42.8038,16.56,21.81,18.8334,40.8588,19.12,24.7,62.0955,24.47,15.11,32.3542,35.2056,23.6142,43.4208,52.0933,31.9391,32.087,10.53,24.8825,44.4189,62.2533,39.8969,16.9153,46.06,26.5721,44.1214,54.1188,46.92,40.7931,67.9803,36.4734,54.4496,75.299,53.3413,43.6491,27.6977,5.29,22.3906,22.3138,20.6089,14.2385,86.09999999999998,26.9952,30.7808,34.8012,18.0798,59.0575,31.298,25.2459,30.0966,40.7058,49.9934,51.2281,56.717,40.1047,44.3405,40.67,41.7187,46.6,37.3808,29.6049,79.6896,29.49,44.9353,27.7495,25.1199,15.194,29.8714,18.7874,44.0622,25.3698,99.2789,63.5145,8.693799999999998,10.25,41.3573,27.7014,16.131,29.0034,24.835,33.7749,26.3387,41.3409,20.8107,42.0014,50.3519,18.15,5.75,33.9656,16.0473,30.4,42.5783,25.7843,6.9102,25.15,21.3271,16.7297,39.1168,,16.97,41.5373,28.2759,13.59,27.6639,29.6758,26.2027,41.5042,28.1143,32.5747,32.6208,34.2569,45.41,47.3843,51.7404,23.8603,39.4277,54.0147,40.1556,20.8578,40.6281,31.9213,20.6258,38.0203,25.9604,51.2776,38.3414,19.5589,63.8082,24.4041,53.3106,51.3126,23.59,40.7289,4.11,36.3541,18.36,43.2391,36.744,27.5952,30.4189,28.6316,43.59,37.8623,42.0489,52.1059,31.3333,31.6748,35.5136,22.9183,22.6442,45.0796,27.0,11.0457,23.0,24.0364,20.0394,88.26999999999998,41.5756,30.7729,29.0719,32.7708,21.9956,49.897,31.2509,22.5,26.0657,30.6073,22.5376,55.8872,21.2512,35.5918,47.1678,69.1687,38.0,24.4875,44.2444,24.295,40.2998,31.184,44.2466,18.7148,48.5318,22.29,34.2311,21.6107,36.0693,,14.6096,46.4526,,13.64,21.265,48.4133,10.12,3.2175,31.5522,31.1556,24.5626,7.38,53.7319,29.75,38.7121,28.7736,35.5233,17.3284,14.7669,18.0438,21.0299,33.2994,55.0892,7.559999999999999,43.8373,16.1628,57.6366,74.42579999999998,28.6095,45.8146,47.7343,38.71,50.9737,37.6,23.9408,53.7788,66.8596,27.29,33.5624,41.5951,47.06,51.7842,16.1824,28.6785,44.3045,11.7,26.625,66.0433,,59.25,37.0913,15.5352,27.9207,50.3505,29.55,,54.9912,60.0824,42.6506,,50.4011,16.766,71.4451,26.8529,50.7996,15.52,25.8565,34.04,22.5369,62.8077,80.15
2005-01-26,22.0,27.0552,36.125,28.6342,19.7045,76.102,43.6621,30.6178,40.9085,53.97,28.005,34.2096,22.055,42.4638,29.53,45.828,32.566,13.75,31.1972,39.0798,38.1163,65.9979,31.9687,31.2396,12.77,49.5142,18.3593,15.9815,15.98,63.56,,18.1,41.34,18.7,48.8334,20.8972,52.6329,32.075,55.8408,77.12,38.0877,57.4668,21.7316,62.4182,39.442,58.403,8.71,45.5519,18.82,89.93,48.2851,44.3514,34.16,39.87,37.1372,36.0987,47.0304,65.137,77.58719999999998,54.6691,61.6785,47.0849,42.4242,11.2,63.47,23.2773,28.5901,41.4088,16.91,27.8133,22.5492,45.9975,21.0078,47.01,98.2085,31.78,20.1542,46.9876,52.8585,45.6211,26.5073,27.1827,53.5708,42.2905,35.9252,32.1532,11.088,28.1988,,13.9417,21.2868,54.8513,29.6403,43.1903,14.39,36.6699,17.1166,23.7692,26.2956,18.48,41.0497,39.9325,48.254,55.6381,53.5057,21.8592,194.5891,35.9474,10.2586,10.4394,19.6316,75.70059999999998,26.91,42.1978,44.2973,46.6494,,27.9817,6.94,50.8,17.69,18.9742,42.6401,32.8231,18.32,59.642,22.75,14.35,35.4618,22.5609,50.6616,11.4608,33.2285,45.6526,37.3716,25.3673,65.1758,40.45,21.9978,16.39,44.0527,29.2625,54.541,28.2793,38.1186,36.6396,45.7766,28.3071,39.884,15.8,14.1331,40.0976,4.21,41.16,33.1811,40.0402,21.793,27.791,30.312,30.9895,44.818,12.78,50.3284,32.6845,36.3563,10.6172,,29.9228,62.84,18.575,33.7904,12.95,65.1761,67.4594,42.6431,27.9804,,12.4643,34.3506,30.7177,93.9137,37.7273,39.9024,28.2471,35.4471,39.54,43.7297,51.4443,62.2147,75.6992,36.6043,62.9459,41.47,33.7677,78.355,49.9841,34.0679,59.16,30.6234,16.585,50.0065,10.95,35.3105,26.8958,189.24,40.3003,20.9711,31.9743,101.9769,15.06,59.2393,21.2199,121.798,18.3754,22.0525,10.9076,40.2838,27.6596,61.4419,67.0566,35.9917,57.8384,34.3966,44.5227,14.11,19.147,22.9509,31.12,15.42,55.9506,33.01,23.62,90.1587,,40.4508,30.195,22.0706,19.53,37.2168,13.19,36.5148,40.9957,42.5641,16.6,22.79,18.9552,40.8489,19.6,25.315,63.0018,24.57,14.52,32.5513,35.1769,23.5352,43.2548,53.0004,31.9007,32.2715,10.3,24.859,45.6097,62.0123,40.3226,16.9951,45.53,26.7659,44.3257,55.6802,47.52,40.8328,68.5332,37.1107,55.0948,75.3388,54.2948,44.0998,27.8918,5.35,22.567,22.4448,20.9471,14.3783,85.0,27.0496,31.0389,34.9076,18.2934,59.0673,31.347,25.5923,30.2358,41.1818,47.6406,50.3875,57.3234,40.4115,44.3158,41.67,42.1199,46.95,35.0902,29.7981,80.2669,29.92,44.6106,27.8091,25.2775,15.491,30.0838,18.8977,43.8759,25.3601,99.997,63.6929,8.7062,10.31,41.7485,27.9206,16.0222,29.2869,25.095,33.6898,26.2988,41.7581,21.0133,41.6395,50.7252,18.28,5.85,33.3492,16.4556,30.77,42.6945,25.6873,6.9993,25.89,21.496,16.919,38.6076,,17.18,41.5127,28.305,13.62,28.0282,29.3576,26.1634,41.4852,28.3438,32.7841,32.983,34.4565,45.61,48.4613,51.7598,23.8603,39.951,53.7337,40.4046,20.9002,40.77,32.6436,21.0968,38.0891,25.7444,51.3065,38.5417,19.7995,64.1486,24.701,53.4492,51.5829,21.7,41.4306,4.13,36.5921,18.775,43.7153,36.3026,27.4767,30.8281,28.8198,43.81,38.6393,42.2344,54.3792,31.4767,31.9716,36.0001,22.9482,22.4469,44.9428,27.67,11.1743,23.0,23.7521,19.5066,90.33,41.4112,30.684,29.2007,32.9926,21.6978,50.1241,31.2224,21.45,26.3205,31.0565,22.5971,55.9152,21.1923,36.0136,46.9002,69.2948,36.86,24.6289,43.6552,24.5,41.0798,30.8407,44.0837,18.9633,49.6291,22.84,34.1729,21.7256,36.1185,,14.7799,46.7883,,13.85,21.625,49.8039,9.94,3.1625,31.6613,31.2091,24.6516,7.44,53.7616,29.76,38.3497,28.7241,36.0424,17.5655,15.1999,17.9351,22.5634,33.9436,55.4195,7.76,43.8623,16.671,57.1126,73.84869999999998,28.619,46.0117,48.3287,39.92,50.6739,37.38,24.5386,54.024,65.7445,29.28,34.0472,41.6843,47.63,51.9385,16.4669,28.9352,44.7774,11.79,26.89,66.5411,,59.275,37.3456,15.6932,28.1154,50.3505,29.6,,53.7746,60.2639,42.1098,,49.2977,16.8687,71.8551,27.8416,51.1658,15.41,26.2566,35.47,22.611,65.0917,81.0
2005-01-27,22.0,27.4519,36.32,28.4264,20.147,75.1667,43.2529,30.9384,40.5104,53.85,28.085,34.1605,22.1913,42.0545,29.66,45.6717,33.2929,13.72,31.6593,39.0209,38.4108,65.3581,31.8344,31.1509,12.66,49.0942,18.5789,16.3384,16.12,61.58,,18.22,42.31,18.73,48.9022,21.0908,53.9316,32.4002,55.6095,77.01999999999998,38.6065,58.8244,22.1268,61.5516,39.6563,58.2471,8.689999999999998,45.2774,18.95,89.7,49.3601,44.1188,33.6477,39.66,37.1277,35.5669,44.3218,66.6822,77.67499999999998,55.1382,61.7534,47.6505,43.0857,11.22,63.69,24.0908,28.2811,41.9238,16.82,27.7942,22.5399,46.4863,21.3642,46.7,98.2283,32.22,20.6321,47.3349,51.8475,45.6964,26.557,27.1827,54.0484,40.1556,35.3011,32.1002,10.989,28.3597,,14.0311,21.5935,55.4551,29.4567,43.42,14.135,36.0655,17.3444,23.5673,26.5361,17.78,40.5013,39.9822,50.9724,55.5329,53.1787,21.5754,207.226,36.1663,10.3882,10.4956,21.0836,74.6143,27.025,42.6057,44.5469,46.5214,,28.0983,6.86,50.69,18.18,19.2465,43.2846,32.6142,18.63,58.7551,23.15,13.85,36.2274,22.6303,51.1536,11.7056,33.084,46.1339,36.8559,25.5559,64.5693,40.78,23.43,16.42,47.1824,28.6854,54.8407,28.0023,37.1424,36.7282,45.6075,28.7122,40.078,15.23,14.2368,40.6219,4.24,41.35,33.0825,39.9029,21.0559,27.6715,30.4831,31.6061,44.8378,12.89,50.6308,32.4522,36.6703,10.7161,,29.453,62.98,18.6575,34.099,13.47,65.3022,67.909,42.7996,28.0948,,12.3149,34.1295,31.6621,93.6353,37.9073,39.6333,28.2664,34.491,39.56,43.5421,51.5928,61.5094,75.79139999999998,36.6189,63.0897,41.83,33.7861,78.257,50.6669,34.1831,59.28,30.4885,16.295,50.5826,10.75,35.0431,26.5993,188.08,39.9961,21.5432,32.6641,102.7077,15.61,59.5237,21.6022,126.1258,18.2218,22.043,10.9076,40.2145,27.6075,61.3152,65.9644,36.1174,58.2219,34.666,45.3332,14.19,19.0492,22.9845,31.43,15.42,57.2593,33.5,23.31,90.1881,,41.4064,30.3024,21.9624,19.26,37.3686,13.1,36.5,41.6246,42.202,16.48,23.31,18.8046,40.8094,17.92,24.895,62.5827,25.0,14.23,33.0638,35.1005,23.4957,43.8994,52.1377,31.6794,32.495,10.42,24.7648,46.3342,62.3593,40.4,17.2343,45.69,26.9694,44.6097,54.8553,48.23,41.0913,69.9649,37.1009,55.1643,75.5276,55.445,43.419,27.8271,5.9,22.5376,22.2319,19.8083,14.2884,84.48999999999998,27.5885,31.6196,35.0913,18.2157,58.5746,31.4744,26.0772,30.1762,41.7025,46.8892,50.793,57.2061,40.2333,44.1038,41.8,41.9047,47.35,36.026,30.2038,79.757,30.3,45.1805,27.8985,25.3267,15.5405,30.0934,18.6531,43.5358,25.4576,99.2494,63.7326,8.8229,10.63,41.8376,27.6347,16.4573,29.63,25.315,33.5858,26.3936,41.8177,21.3632,42.2752,51.187,18.54,5.7,33.3687,16.3262,31.07,42.2391,26.3665,7.5603,26.68,20.417,16.8592,37.8635,,17.09,41.6015,28.5672,13.97,28.0574,29.3962,26.3895,41.3424,28.1707,32.8888,32.6022,34.5762,45.84,48.6485,51.8082,23.9476,39.3882,53.6173,40.4599,20.5709,41.3699,32.0757,21.1459,37.5579,26.0193,51.1038,38.8605,19.9198,64.2148,24.8309,53.4492,50.8687,21.66,42.0829,4.14,35.8384,19.165,43.6861,36.2887,27.8617,30.5398,29.3251,44.43,38.8485,42.4394,55.3917,31.4194,32.3475,36.2239,23.1374,22.3186,44.4835,26.515,11.1644,23.76,23.6873,18.7468,94.35,41.3919,30.9359,29.4681,33.2834,22.3125,50.1142,31.346,22.25,26.2225,31.3278,22.498,55.0112,21.1923,36.2491,46.1965,69.382,36.6,24.7995,43.4784,25.095,41.6768,31.1644,44.6683,18.9136,48.6315,22.94,34.6,20.9213,36.8768,,14.8934,46.9418,,13.94,21.3,49.4686,9.99,3.2062,31.4431,31.0682,24.7606,7.34,53.4652,29.74,38.2125,29.1097,35.9271,17.852,15.4388,17.777,22.7824,34.4667,56.2061,7.769999999999999,44.192,16.6465,57.5687,72.3912,28.7137,46.143,48.9711,36.6,51.1284,37.3,25.2895,54.2202,64.873,25.46,33.4412,41.7636,48.75,51.871,16.6919,28.7261,45.1715,12.04,27.06,66.3459,,59.95,37.5179,16.4241,28.1446,50.1615,29.92,,54.2113,60.1493,41.9525,,50.2336,16.8967,71.7598,28.1283,51.2152,15.6,26.7307,34.73,22.3985,64.3815,79.96
2005-01-28,21.61,27.3669,36.99,28.8766,19.5767,74.42829999999998,43.0722,30.5811,39.9229,53.27,27.74,34.0723,22.4542,42.0935,28.56,45.7636,33.4061,13.79,31.4645,38.3533,38.0814,64.8266,32.1209,31.1607,12.69,48.5178,18.4591,15.9022,15.71,61.3,,18.23,42.22,18.61,49.0693,20.9843,53.7036,32.3164,56.0625,76.98,38.6457,58.1359,21.9687,62.2505,40.7379,58.1984,8.56,45.2946,19.15,88.54999999999998,48.3432,44.2835,33.224,39.64,37.1087,34.9573,44.3711,65.8105,78.99299999999998,55.1186,62.8302,47.4818,42.0195,11.16,62.2,23.6422,28.5032,41.1909,16.67,27.6987,21.9504,46.0854,20.8032,46.53,98.6047,32.2,20.3003,47.2963,52.8129,45.527,26.2294,27.4347,55.2722,40.5919,35.2099,32.3991,11.0418,27.9453,,13.9814,21.4649,55.2311,29.6587,46.5207,13.7,35.8178,17.1959,23.2965,25.8937,18.06,40.055,39.6148,49.9759,56.4214,53.3095,21.2916,206.8212,36.3755,10.3184,10.3926,20.6045,74.6143,27.46,42.2873,44.5421,46.5805,,28.2635,6.75,50.34,17.9,19.3356,42.9872,32.3457,18.395,60.3097,21.6,13.8,36.135,22.7196,50.8319,11.6793,33.0213,46.3893,36.7637,25.7147,65.4358,41.06,23.1462,16.11,46.5722,28.8334,54.7708,27.933,36.9619,36.5806,46.1898,28.7319,39.8101,15.07,14.2641,39.7118,4.28,40.55,33.1022,39.6284,21.036,27.8109,30.4071,32.0075,46.2609,12.97,50.0921,32.3237,36.8847,10.726,,29.324,61.91,18.395,33.5514,13.55,65.0305,67.9774,43.1321,27.9555,,12.2682,33.1165,31.8666,93.89380000000001,37.3387,39.2991,28.2277,34.1125,38.47,42.9513,51.781,61.9546,75.98489999999998,36.804,62.7733,41.04,33.5466,77.7183,50.3499,34.3175,57.89,30.8354,16.255,50.7938,10.74,34.9858,26.0951,190.34,40.0151,21.5137,32.9794,104.8014,15.37,59.0235,20.2766,120.8885,18.1641,21.7469,10.8983,39.9673,27.5424,60.7301,65.0691,36.2915,58.4874,34.3389,45.6794,14.26,18.9026,22.8405,31.48,15.6031,57.033,33.61,23.71,91.0803,,41.4163,30.156,21.8934,19.28,37.3686,13.05,36.4901,41.6197,42.4613,17.04,23.17,18.686,41.1648,17.52,24.8,62.9725,24.55,14.35,32.64,35.3393,23.4908,44.2314,53.0841,31.4581,32.3104,10.5,24.8072,45.5204,62.8122,40.1387,17.1845,45.62,27.0179,44.834,55.2481,47.43,40.9322,69.9748,36.7676,53.1889,74.6829,55.4254,42.9971,27.9615,5.82,22.763,22.0779,19.1617,14.2184,84.14,27.3017,31.6047,35.5556,17.8081,57.8651,31.3568,25.5923,33.3589,41.6033,46.8596,51.8512,57.5191,39.5306,44.3849,41.8,41.2587,43.27,36.1624,30.0299,80.1033,30.36,45.5918,28.1963,25.7109,15.3425,27.0436,18.3989,44.0379,25.5258,98.6002,62.4638,8.7062,10.36,44.0953,27.2535,16.4178,29.0432,24.84,33.3872,26.1491,41.7184,21.2129,42.2948,50.8628,18.25,5.57,33.3296,16.5154,31.21,41.9484,26.6333,7.5504,26.27,20.3607,16.6899,37.9516,,16.95,41.1675,28.4701,13.68,27.9359,29.2994,26.3993,41.8279,28.0016,32.9268,32.63,34.6461,45.67,48.8826,51.5756,23.6274,39.2401,52.4833,40.3124,20.5909,41.2086,32.3746,22.1271,37.2825,26.0979,50.9784,39.1263,19.9012,64.1675,24.8681,52.8652,51.3223,21.75,42.1521,4.24,36.0467,18.885,43.1516,36.7164,27.3484,30.2011,29.8898,43.51,38.8485,42.6542,56.037,31.5914,31.843,36.0196,23.0578,22.8415,44.4053,26.85,10.9765,24.0,23.5128,18.6186,93.94,41.2662,30.6692,28.433,33.0518,22.3798,49.1564,31.4411,24.91,26.3892,31.3465,22.3594,55.4772,21.0287,36.2,46.0578,68.7711,39.24,24.741,42.9972,25.275,41.2483,31.39,45.1858,18.7247,47.9632,22.67,34.8427,20.8771,35.8231,,14.9218,46.5197,,13.75,21.2,48.8078,9.9,3.6088,31.2447,30.9177,24.5923,7.2,53.2479,29.54,38.8199,29.0504,35.4752,17.5359,15.5831,17.7177,23.0114,34.2197,56.6308,7.769999999999999,44.0371,16.7054,57.1514,72.47929999999998,28.2306,46.4902,48.8944,36.9,50.7609,37.08,25.0375,54.8971,64.7044,25.59,33.2641,42.4871,48.36,52.0447,16.4881,28.7688,44.5311,11.94,26.655,65.1452,,60.3,37.3599,16.5228,27.9597,49.5472,29.91,,54.7105,59.8531,42.2573,,50.2139,16.8593,70.3007,28.4645,50.7402,15.41,26.2862,34.62,22.3094,63.5754,79.89
2005-01-31,22.11,27.8771,38.45,28.8321,19.7144,75.6885,42.8343,31.1491,41.1264,54.19,28.45,35.2002,23.5643,42.3663,29.37,46.0577,33.274,14.05,31.7342,38.7853,37.9017,65.2498,32.1478,32.0575,13.1,49.27,19.1679,15.7634,15.8,62.24,,18.12,43.22,19.04,49.256,22.0103,53.9515,32.6219,56.7757,78.18,39.1939,59.5227,23.7072,62.3623,41.1373,58.5198,8.31,45.7664,19.34,89.25,49.0018,44.9328,33.2634,40.29,37.5848,34.886,45.425,67.1577,80.4478,55.3629,63.5419,47.8588,42.75,11.26,64.96,23.6915,28.6964,42.3101,16.83,27.7083,21.9317,47.1022,21.0078,47.55,100.0903,33.06,20.9837,47.441,52.6217,46.1575,26.9938,27.6691,56.0384,41.353,35.7572,33.503,11.5467,28.0574,,14.2298,21.7122,56.088,29.7688,47.851,13.67,36.66,17.4039,23.6361,26.4372,17.85,41.0125,40.0815,50.8273,57.3872,54.0569,21.2454,211.7674,37.7914,10.4979,10.533,20.8367,75.2488,28.05,42.6853,45.4232,46.5608,,28.4869,6.9,51.52,18.04,19.7861,43.1359,32.4252,18.95,61.0969,21.45,14.29,37.554,22.9824,51.4753,11.793,33.4309,46.7134,36.6072,26.0422,66.8413,41.76,23.2518,16.08,46.897,29.4327,54.8207,28.3288,36.5971,37.6825,46.6782,29.2062,40.4659,15.05,14.6188,40.2361,4.45,40.75,33.2009,40.15,21.3348,28.1793,30.8633,32.3892,44.6105,13.1,51.179,33.2331,37.0093,10.7557,,29.0569,64.34,18.5475,34.0791,13.75,65.9914,67.9579,43.2788,27.9307,,12.2962,33.8993,32.5676,95.1069,37.6799,39.5126,28.4602,34.8595,38.25,43.5796,53.0188,62.4674,77.37609999999998,37.33,62.6007,41.53,34.0072,78.39409999999998,50.3596,34.6823,58.21,30.6137,16.55,50.8803,10.94,35.1482,26.2236,195.62,40.2433,21.7109,33.7972,106.5099,15.44,60.0337,20.4205,121.5882,18.9371,21.9379,10.9014,40.808,28.2264,61.6662,66.2104,36.5622,59.1068,34.6179,45.5535,14.51,19.147,23.1812,28.89,15.42,57.5545,34.27,24.23,91.6,,41.5936,30.5562,22.1002,19.5,37.1315,13.05,36.7669,42.2387,42.5543,17.44,23.57,18.9584,42.1819,17.2,25.395,63.0505,25.13,14.83,33.1426,35.6545,23.8116,43.5966,53.5574,32.1508,33.0098,10.51,24.9437,45.8975,63.1302,40.1387,17.0449,47.01,27.6187,45.4419,55.4543,47.85,41.6876,70.5079,36.9931,53.844,76.75,56.8312,44.2436,28.3647,6.11,23.2235,22.2777,18.0079,14.4683,83.34999999999998,28.0829,31.3565,35.5943,18.8756,58.8702,31.739,25.7803,34.3038,41.5438,47.4824,51.9105,58.7514,39.3426,44.6265,42.57,41.8949,43.53,36.2306,31.3919,81.1714,31.29,46.0462,28.514,26.6615,15.5801,27.0725,18.5764,45.3258,25.6233,100.6855,63.3361,9.0415,10.41,44.2043,27.5299,16.4475,29.4261,25.2,33.6236,26.6181,41.3111,21.523,42.3633,50.9708,18.44,5.77,34.1712,16.864,31.84,42.2876,27.2446,7.5636,26.15,20.1918,16.939,38.0691,,17.29,41.8578,28.6546,13.77,28.3585,29.6494,26.8809,42.5895,28.4485,33.3075,33.1781,35.0752,46.58,49.3977,52.0408,23.443,40.0695,51.5917,40.8011,20.8678,42.0344,32.9176,22.5589,37.5186,26.4415,51.9918,38.8468,20.2158,65.0278,25.0536,53.3601,50.6757,22.21,42.6462,4.2,36.9293,19.14,44.2693,36.9785,27.8025,30.3911,30.0582,44.0,38.7987,43.1912,56.2355,31.9738,32.763,36.3893,23.2868,23.5125,45.2457,27.0,11.115,23.85,25.5823,18.3127,94.18,41.769,31.0396,29.3195,33.5398,22.5527,49.5612,31.4791,24.7,26.595,31.5992,22.5179,55.2628,21.4213,36.514,45.9487,69.8378,39.28,24.7654,44.0087,25.96,42.1246,31.0074,45.5787,18.7347,49.0206,23.35,33.9496,21.0008,36.7341,,15.1489,49.0136,,14.03,21.525,50.0701,9.93,3.7375,31.1752,30.8934,24.7903,7.12,53.9394,29.94,39.1627,29.5893,36.0905,16.9629,15.8469,17.7869,23.111,34.8638,56.851,7.849999999999999,44.4118,16.8526,57.8307,73.0466,28.4674,47.5316,48.2616,37.73,51.3992,37.34,25.7045,55.4072,64.7887,25.84,33.1802,42.2294,49.08,52.9227,16.6537,29.1396,44.0483,12.3,27.135,66.6289,,60.75,37.49,16.6018,28.2323,49.5189,29.83,,54.8976,59.6048,38.9636,,51.0316,16.9807,71.3115,28.86,51.0668,15.88,26.6048,35.21,22.9176,65.0821,78.85
2005-02-01,22.52,27.9243,38.765,29.1685,20.0388,78.21859999999998,43.3386,31.4148,41.5718,53.63,28.95,35.2982,23.3598,42.8535,28.94,46.6826,33.6232,14.29,32.7458,37.892,37.787,65.6928,32.3895,32.5108,13.08,49.7486,19.2378,16.2591,16.27,62.53,,18.24,42.48,19.1,49.256,22.0587,54.6653,33.021,57.2094,79.73999999999998,42.3458,59.6681,22.7985,63.2755,42.5209,58.3251,8.48,48.6831,19.43,89.75,49.4278,45.2332,33.4309,40.9,38.1085,35.8847,45.7007,68.6731,81.00419999999998,56.2914,63.6168,48.0771,43.224,11.41,64.72,22.8187,28.6384,42.8647,17.05,28.1,22.1375,47.063,20.9484,47.55,101.0114,34.81,20.892,47.7111,52.7674,46.5621,27.5101,27.1908,58.1079,41.8264,36.751,33.2186,11.7117,28.6962,,14.6472,21.6627,55.2408,29.8331,48.253,13.8,37.6805,17.5623,23.7279,27.1949,17.29,41.1705,40.8559,51.4754,56.6918,53.7486,20.856,189.0604,38.458,10.8568,10.7203,20.9898,76.3831,28.1,43.0535,46.3141,46.2555,,28.4869,6.87,51.67,18.13,19.8009,43.5326,32.8231,19.08,62.6316,21.96,14.09,38.4978,23.0716,52.185,11.793,33.2237,46.9982,36.7637,26.3002,67.6693,41.62,23.067,16.58,47.4875,30.3723,55.0705,28.497,37.7971,37.407,47.7301,28.9987,40.5952,14.8,14.777,41.077,4.63,38.965,33.4673,40.1043,21.2751,28.6872,30.6257,32.4479,44.571,12.94,50.4985,33.8015,37.8566,10.8052,,29.5359,65.06,18.99,34.1787,13.59,65.8069,67.8406,44.2569,28.065,,12.2122,34.1387,32.4021,95.1765,37.9073,39.5868,28.063,34.9392,38.5,44.0298,51.8305,64.0352,76.81409999999998,37.8414,64.2403,42.25,34.1085,77.7673,50.4474,34.8263,58.3,31.269,16.73,51.2355,10.93,35.215,26.3126,191.9,40.5951,21.5827,34.1421,107.0531,15.96,60.5731,20.3262,122.1579,19.4008,22.0334,10.9944,40.6893,28.5359,62.222,67.6765,36.6009,59.7263,34.6949,45.8762,14.75,19.3718,23.186,29.55,15.42,58.2925,34.82,24.22,92.0314,,41.7709,30.6441,22.2772,19.445,37.6721,13.15,38.4179,42.6151,42.931,17.68,23.48,19.2211,41.5697,16.56,25.605,63.7521,25.0,14.39,32.9948,35.8168,24.1225,43.8994,55.0855,32.4394,32.7378,10.33,25.1415,46.6914,62.9278,40.071,17.1047,47.24,27.3668,45.8206,56.1417,48.87,41.6777,70.3302,37.3656,54.3602,77.6046,57.7257,44.5984,28.4094,6.03,23.5273,22.3695,18.2914,14.5382,84.79,28.5081,31.3813,35.9038,19.0503,58.9688,31.3372,25.909,35.3382,41.9157,46.8793,52.316,59.2404,40.0255,45.4303,43.23,42.0808,44.75,36.2599,31.8941,80.902,31.5,46.1039,28.6232,26.8979,15.8275,26.8602,18.7922,46.3707,25.7306,101.6692,63.574,9.1905,10.7,44.9222,27.7777,16.6057,29.5753,24.995,34.1722,26.4335,41.1621,21.5982,42.5784,51.0887,18.54,5.69,34.3277,16.7644,32.15,42.6849,27.1766,7.7055,26.54,20.4732,16.8393,37.9124,,17.61,41.6754,28.9071,13.65,28.854,29.3869,26.8219,43.0654,28.5169,33.279,33.6053,35.16,47.52,50.1937,52.2152,23.152,40.7212,51.2427,41.2897,21.2919,41.9634,33.7644,22.4607,37.4792,26.5299,52.1172,38.558,20.5119,65.3777,25.8424,53.7461,51.1293,22.52,42.6462,4.24,36.5227,19.87,44.2693,37.2222,28.1777,30.638,29.5034,43.9,38.4401,43.3083,57.4764,32.2605,33.0498,36.6909,23.4562,23.8578,45.5487,27.175,11.0358,23.9,26.0411,18.737,94.11000000000001,41.798,31.1779,29.6068,33.6827,22.7064,49.9661,31.6693,24.9,26.6832,31.8893,22.8149,55.9618,21.4147,36.6611,45.9884,70.3711,39.79,24.78,44.7355,26.51,43.4246,31.184,45.2049,18.6651,51.4347,23.41,33.7845,21.1423,36.9359,,14.9502,48.9464,,14.5,21.435,50.0011,10.0,3.6688,31.0463,31.1799,25.1467,7.0,54.1963,29.91,39.339,29.876,36.9654,16.9036,16.5387,17.866,23.4794,35.0188,54.2869,7.849999999999999,45.301,16.833,57.8307,73.58459999999998,28.8274,47.1282,47.9452,37.5,51.8247,37.21,28.1401,54.593,65.8289,25.52,33.4505,42.5663,49.71,53.4148,16.7853,29.3773,43.6395,12.25,27.25,67.4293,,62.2,38.0568,16.75,28.6703,49.7173,29.6,,54.7573,59.9869,38.3442,,51.0513,16.99,72.1507,28.9984,52.7195,15.7,27.0938,34.75,22.6654,66.176,87.4
2005-02-02,22.7,27.8487,39.815,29.1091,19.9503,77.79529999999998,43.4242,30.3246,41.695,53.65,31.145,35.3179,23.3306,42.5417,29.59,46.508,33.6515,14.48,32.6334,38.1276,38.5155,65.8011,32.3806,32.6587,12.99,49.9147,19.1579,16.1203,16.66,62.65,,17.98,41.88,18.97,48.9808,22.0877,55.1411,33.4102,57.2865,78.43,42.5024,60.1239,23.2331,64.1609,43.3686,58.7243,8.37,47.8424,19.72,91.6,50.5803,45.2816,33.4703,40.29,38.0038,35.6058,45.2575,69.0198,81.8146,58.07,63.2048,48.3153,43.6781,12.09,65.5,22.9519,28.4549,43.5778,17.0,28.1191,22.4557,46.848,20.79,47.69,100.4964,34.78,21.0951,47.6243,53.9786,46.7503,28.0263,27.2377,58.2572,42.2394,36.0308,33.3391,11.5995,29.2033,,14.4385,22.1177,55.0558,30.2186,48.2051,13.93,35.58,17.9189,23.7142,27.0467,17.92,41.5981,40.9155,52.5202,56.7498,54.0662,21.0936,191.8939,35.3975,11.126,10.8982,21.0984,75.43139999999998,28.155,43.4614,46.5442,46.4623,,28.6133,6.94,51.34,18.15,19.5683,44.5738,33.8675,19.1,62.203,22.26,14.04,38.115,23.9294,52.5446,11.8192,33.296,47.3027,37.2519,26.0422,67.5249,41.45,23.298,16.86,47.8074,29.8914,54.7408,28.5267,38.258,37.2398,48.3969,28.89,40.6137,14.74,14.6788,42.1059,4.75,39.4,33.4574,40.0493,20.9165,28.9759,30.8443,33.0842,45.1244,12.89,50.9522,33.6483,38.1906,11.0723,,29.4806,65.56,19.03,35.0846,13.52,65.904,69.0723,44.0808,27.9953,,12.3896,34.6821,34.0572,94.8682,38.2485,39.3084,27.908,35.0985,38.58,44.4424,53.4545,62.3416,78.0856,38.0899,63.3294,42.58,34.5138,78.00239999999998,50.7401,34.7975,58.2,31.799,16.325,50.9859,11.1,35.8548,26.3719,205.96,41.2891,21.563,33.7972,107.2407,15.99,60.9851,20.6291,120.6386,19.9032,22.0238,10.9169,40.8475,29.2754,64.5428,67.7159,36.7459,60.3065,35.3491,45.8762,14.82,19.1274,23.0948,29.55,15.4682,58.7156,34.65,24.11,92.4629,,41.8202,30.3902,22.2281,19.135,38.2032,13.19,38.0867,42.8627,42.8576,17.56,23.3,19.1474,41.7178,16.16,26.265,64.3174,24.47,14.6,33.2116,35.8359,24.5321,43.6552,54.7158,32.3336,33.0293,10.66,25.7112,46.483,63.6891,40.5548,17.1147,47.08,27.4249,45.8007,56.8095,48.95,41.7075,70.7943,36.9049,54.7375,77.15739999999998,57.883,45.1834,28.5189,5.91,23.5567,22.8674,17.7692,14.5382,84.84,28.5773,31.5203,36.0972,19.5161,59.1067,31.1314,26.4928,35.7261,42.362,46.9387,51.9798,58.9372,39.8671,45.9579,42.9,41.7774,44.38,36.8642,31.4981,80.18989999999998,29.35,46.0967,28.5736,27.2624,16.1047,27.4682,19.1855,46.2248,25.7988,101.2658,63.1379,9.3147,10.82,45.0559,27.6823,16.7639,29.8836,25.595,34.1722,27.0772,41.2813,21.5794,42.3975,51.4228,19.145,5.61,34.1712,16.5752,31.44,42.3167,27.4386,8.1345,26.21,20.8673,16.9589,38.0887,,17.7,42.0107,28.8974,13.56,29.2572,29.2021,27.0382,43.7889,28.4163,33.5359,34.1533,35.5093,48.43,50.0345,52.4672,23.3557,40.8693,51.7564,40.9394,20.9676,42.8407,33.9986,22.9121,37.8727,26.0488,51.6347,38.8002,20.6969,65.8315,25.6104,54.1816,52.6734,23.13,42.6462,4.2,36.0863,19.68,44.59,37.4383,28.701,30.3626,29.2359,44.5,39.0477,46.0615,58.1117,32.5091,33.5345,36.7785,23.4661,24.1538,45.9298,27.0,10.9666,24.17,26.0062,18.7172,96.58,41.8463,31.2322,30.0377,34.5651,22.8024,50.3018,31.5647,24.73,26.6636,31.7676,22.9238,57.1267,21.1072,37.0339,45.9785,70.6814,39.74,25.0287,44.4212,26.755,43.8386,31.9785,45.0803,18.8241,50.9559,22.98,33.736,21.5577,37.0787,,14.742,49.0232,,14.39,19.92,50.6027,10.4,3.6488,30.7686,31.4811,25.4734,7.07,54.5223,29.99,39.4566,29.7228,36.5039,16.8443,16.8174,17.9252,23.3898,35.5758,54.224,7.9,44.9613,16.8232,57.4911,73.5552,29.0168,47.4378,47.7583,38.57,52.4823,37.35,29.2072,55.3876,67.3282,25.6,33.4505,43.2601,50.2,53.6077,16.7301,28.8924,44.5902,12.3,27.93,66.6387,,61.485,38.1404,17.3327,28.9137,50.1426,29.88,,54.5857,59.8818,38.6687,,52.2729,16.9247,72.1126,28.9489,53.3727,15.7,27.4494,35.54,22.5567,66.4543,86.63
2005-02-03,22.1,27.5275,38.905,29.6731,19.734,77.79529999999998,43.4433,30.8102,42.1877,53.19,31.71,34.5627,23.4182,42.9802,30.98,46.4069,33.6232,14.94,32.6834,38.0687,38.1612,65.24,32.2552,32.6488,12.76,49.7486,18.8385,16.0211,16.67,62.14,,17.83,35.75,19.74,54.0519,21.7199,54.8933,33.0555,56.7275,78.17,43.3736,59.639,22.8676,64.0117,43.3004,58.0426,8.529999999999998,47.5336,19.58,93.35,50.3575,44.9618,33.9728,39.93,37.8609,35.8718,45.8091,69.9806,81.4436,58.0798,62.8676,48.9405,43.8163,12.59,65.18,22.7694,28.4839,43.6174,15.05,27.8898,22.306,46.3298,20.1498,47.16,99.9318,34.41,21.7537,46.8236,53.9149,46.2516,27.4009,26.8344,59.7895,42.6061,36.7462,33.7488,12.3981,28.7303,,14.2298,22.454,54.5592,30.0167,47.9659,13.62,35.3918,17.6515,23.5489,26.9874,18.48,41.6074,41.3821,52.9942,56.9912,54.3652,21.1926,192.7232,35.1543,11.106,10.9544,21.0589,75.38339999999998,28.165,42.6853,46.9212,45.6743,,28.4869,7.01,51.31,17.52,19.4742,44.4548,33.3105,18.745,61.346,21.89,14.19,37.9236,24.3906,53.2164,11.8629,33.1611,47.2438,37.39,25.7842,67.6789,41.17,23.3244,16.75,47.8566,30.0468,54.3912,28.497,37.7875,36.7872,48.04,28.89,40.6414,14.74,14.8261,40.9979,4.68,38.61,32.8555,39.9029,21.0759,30.1708,30.8633,32.9863,44.4623,12.6,50.9427,33.8509,38.5196,11.0822,,29.2595,65.0,18.83,35.453,13.39,65.8069,69.1212,44.3058,27.8312,,12.2402,34.415,33.6385,93.89380000000001,37.7462,39.7353,27.4334,34.9392,38.48,44.4143,56.3758,61.9546,77.7539,38.3626,63.6171,42.52,34.4124,78.21779999999998,50.3108,34.6247,58.55,32.3771,16.14,50.9667,11.05,35.6256,26.2928,210.86,41.6693,21.1487,33.8366,107.3888,16.0,60.9066,20.7433,117.0205,19.5844,21.8806,10.9602,41.1146,29.6989,64.3868,68.198,36.6589,60.0115,36.0611,46.5765,14.72,19.45,22.7685,29.0,15.4104,58.9026,34.25,24.0,91.7177,,41.4754,30.6636,22.0313,18.87,37.2643,13.18,39.0901,42.5656,42.6424,17.04,22.89,18.9071,43.3075,15.92,25.64,63.9763,23.3,14.49,33.1131,35.7118,24.9861,43.245,55.2087,32.3528,33.0293,10.25,25.7112,46.0265,64.1613,40.3806,17.1247,47.25,27.2892,45.8705,56.1123,49.45,41.8566,70.2512,36.4638,54.4694,76.2034,57.3325,45.1929,28.504,5.81,23.2725,22.6054,17.4012,14.5882,84.45999999999998,28.7603,31.828,36.0876,19.4288,58.9096,31.4156,26.2355,36.4024,42.7835,47.2155,51.8116,58.1352,39.2931,46.3524,42.9,41.4349,44.19,36.6205,30.8993,80.18989999999998,28.86,45.9813,28.097,27.4102,15.8275,27.42,19.4685,46.3139,25.5258,101.1183,63.0586,9.2452,10.85,45.3777,27.5108,15.9826,29.7344,25.795,33.9357,27.1969,40.6059,21.5888,42.3486,51.2656,19.245,5.8,33.5253,16.5553,31.05,42.1422,27.6472,8.0487,25.95,20.6703,16.64,37.8635,,17.78,42.129,29.1693,13.34,29.4175,29.4258,26.9596,43.9412,28.3398,33.3551,33.8282,35.5541,48.93,50.306,52.6513,23.2005,41.0372,51.6013,40.9394,21.0799,42.2537,33.0471,22.4411,37.8727,26.2157,51.7698,38.6325,20.6969,65.6613,25.4666,54.5479,52.683,23.69,42.4881,4.4,35.8087,19.63,44.6386,37.6636,28.9182,30.4291,28.8991,44.63,38.5496,46.3739,58.3996,32.4135,33.9302,37.0704,23.5159,24.2722,46.1546,24.785,10.581,24.66,26.0161,18.7468,100.0,43.345,30.931,30.211,34.6932,22.5527,50.1438,31.888,24.5,26.5754,31.3372,23.0625,57.2758,20.8913,37.3086,45.9884,70.6911,39.46,24.9896,44.1364,27.125,44.8497,32.0766,45.2337,19.0726,51.2651,22.7,33.668,21.761,37.4234,,14.9691,48.6971,,14.12,20.26,51.0268,10.06,3.7438,30.3817,31.6122,25.5427,7.22,54.4235,26.8,39.437,29.2679,36.9173,16.6369,16.464,17.945,23.0313,35.4305,53.5004,7.61,45.2411,16.9115,57.2193,73.18349999999998,28.8084,47.3721,48.1754,38.71,52.4146,37.19,30.2397,55.6623,66.0163,25.3,33.4692,43.389,49.65,53.0674,16.7386,29.0208,44.9055,12.05,28.15,63.7885,,61.58,38.2426,17.382,28.8651,50.4828,29.3,,54.5155,59.9678,38.354,,52.3517,17.0554,72.26519999999998,28.4744,53.9566,15.37,27.0419,35.18,22.8336,66.4447,86.55
2005-02-04,22.45,27.7448,39.42,29.4851,20.1273,77.77559999999998,43.3101,31.1766,43.5713,53.42,31.995,36.7988,23.4474,43.0192,31.36,46.3977,33.6515,15.19,32.5835,38.1668,38.9996,66.4606,32.2373,33.0923,12.08,51.1357,19.3676,16.6457,17.49,62.75,,18.03,35.72,19.79,53.9438,21.7974,54.6553,32.617,56.8624,78.65999999999998,44.2938,60.1045,22.8479,64.5988,43.9143,58.9873,8.5,47.8853,19.7,95.95,50.9192,45.4366,34.5837,40.46,38.1466,36.2544,46.3705,69.2576,82.98619999999998,57.9332,64.0288,49.7641,43.6386,12.58,66.95,22.7546,29.0538,43.5283,15.57,28.1859,22.5679,46.4471,21.2586,46.22,101.9621,34.12,21.724,46.814,54.2974,46.8444,27.6391,26.9563,57.889,42.6525,37.2551,33.9368,12.2232,28.8522,,14.4782,22.8002,55.0266,30.5858,49.1908,13.95,36.5906,18.0477,23.5811,27.4025,18.9,42.1373,41.68,53.0426,56.5953,54.8884,21.2058,202.3391,36.0009,11.3253,11.151,21.5725,75.7775,27.8,43.8296,47.1023,45.4872,,28.3703,7.29,52.18,17.9,19.5287,44.4349,33.5492,19.15,64.8239,22.03,14.47,38.2998,24.7178,53.6895,11.9328,33.6766,47.8429,37.8873,25.7246,66.7643,41.51,23.496,16.95,48.8211,32.4366,55.53,29.0016,37.6819,37.2103,48.5848,27.8526,41.2141,14.74,15.1153,40.2856,4.71,37.94,33.1219,40.4429,21.0261,30.8778,31.2721,33.5932,44.8576,13.15,51.2357,33.9696,38.2055,11.3296,,29.6741,68.12,19.0975,36.0802,13.0,66.5834,69.9716,44.7459,28.0152,,12.3429,34.194,33.8819,95.8128,38.0495,40.4315,27.569,35.0985,39.17,45.0989,59.2575,63.0384,78.2146,38.8205,64.2499,41.5,34.9006,78.9818,50.6815,34.7975,60.42,32.9264,16.63,50.8899,11.32,35.5397,26.5696,204.36,42.4299,21.0993,33.9943,108.6529,14.42,62.5053,20.8376,118.9895,19.71,22.1098,10.9634,41.9553,29.7412,65.5569,70.0282,36.7459,60.2475,36.4171,47.6467,15.1,19.9875,22.663,28.7,15.661,59.2864,34.65,24.42,92.6688,,41.6231,30.6538,22.6416,19.17,37.5014,13.38,39.9305,43.0757,42.8087,17.28,23.71,19.0609,42.9422,16.0,25.925,64.5512,22.97,14.29,33.4482,35.9983,24.7789,43.4111,57.2889,32.6318,33.0098,10.46,26.0831,48.3785,64.4697,41.0868,17.1346,47.05,27.454,46.618,58.5378,49.74,42.3039,70.5869,37.1597,54.6283,79.1847,56.6739,45.0587,29.1908,6.03,23.8213,23.1951,18.177,14.788,85.34999999999998,28.9828,32.5327,36.784,19.7879,59.2053,31.9153,27.5023,36.104,42.8083,46.9683,52.7511,59.3578,40.1047,46.4362,43.92,41.6404,44.42,36.8935,31.218,80.902,29.11,48.333,28.4545,28.2771,16.0948,27.362,19.4253,47.5289,25.6623,101.3445,63.5145,9.4489,11.1,45.244,28.054,16.0815,29.7394,26.175,34.0681,27.4015,41.1025,21.6922,42.5638,51.3442,19.225,5.78,34.4451,18.2486,31.92,42.9562,27.4338,8.5107,27.44,21.0644,16.9888,38.0299,,17.88,42.7257,30.0529,13.66,29.1163,29.1146,27.5394,44.4553,28.9035,33.7833,34.9057,36.0531,49.36,50.7556,53.601,23.511,40.9286,51.0004,40.9855,21.3069,42.9891,35.229,23.0691,38.4924,26.4906,52.3103,39.0238,21.141,66.5122,25.8748,55.6268,53.32,23.65,43.6148,4.85,36.6417,20.305,43.7542,39.3603,29.4908,30.676,28.7901,45.0,38.5397,47.1061,59.8787,32.6907,33.7126,36.8952,23.5757,24.2229,46.6041,25.33,10.2645,24.7,26.056,18.8159,103.93,44.0025,31.4001,30.1764,34.8017,22.3798,50.4796,33.2665,25.14,26.9773,31.5898,23.4982,58.4127,21.1465,38.1719,46.2263,71.5542,39.55,24.9165,44.4605,27.5,44.6572,32.3121,45.8279,18.8838,52.4522,23.43,33.9398,21.7433,37.3003,,15.1016,49.4356,,14.5,20.185,50.8098,10.48,3.4838,30.5801,36.7952,25.5922,7.15,54.7099,27.7,39.77,29.6684,37.1769,16.8641,16.1455,17.8264,24.6942,36.0844,53.7363,7.59,45.8455,16.9802,57.4134,72.47929999999998,28.8558,48.498,48.7602,38.9,52.579,37.78,30.0075,56.3981,66.9346,25.76,34.3549,43.7755,50.57,53.849,16.9085,28.9875,45.2306,11.63,28.28,62.9783,,62.445,38.224,17.4216,29.0792,50.5206,29.33,,54.7416,61.5439,38.8161,,51.7212,17.1861,73.47629999999998,29.1467,54.7187,15.4,27.2938,35.02,22.9423,67.174,87.19
2005-02-07,23.12,27.981,39.47,29.4109,20.4518,77.3818,43.3767,31.2041,43.5807,53.01,31.76,36.7988,23.3403,42.6002,31.79,46.4069,33.34,15.06,32.2837,38.2257,36.6891,66.6377,32.3895,33.2598,11.89,50.9892,19.5772,16.5763,17.22,63.15,,17.8,35.69,19.75,55.2705,21.8361,53.7631,32.4347,57.7298,78.0,43.4324,59.7845,23.1145,64.077,43.0666,58.9288,8.529999999999998,47.6622,19.52,95.28,50.8417,45.1944,34.3669,40.37,38.3751,36.0274,46.4394,68.5939,83.1521,58.373,62.8676,49.7839,43.3523,12.48,66.15,22.1383,29.2759,43.5283,15.8,28.1286,22.596,46.0756,21.2454,46.17,101.4867,33.8,21.4937,46.6114,53.9331,46.7974,27.7682,26.8156,57.4413,42.4019,37.4759,34.014,11.9196,28.6767,,14.4882,22.8398,55.3577,31.1825,49.277,14.23,36.0358,17.8397,24.0171,27.3234,18.97,42.0908,41.392,53.4006,57.1554,55.0472,20.988,206.0018,36.4437,11.0961,11.0199,21.4984,75.5276,28.1,43.7201,47.0386,45.4084,,27.768,7.18,52.43,18.16,19.4792,44.4449,33.7481,18.975,64.5648,21.95,14.36,37.6728,24.5195,53.2353,12.0203,33.8164,48.4225,37.7031,25.5162,65.7053,41.44,23.298,16.96,48.6981,32.3034,55.4401,29.5657,37.4611,37.7907,48.4533,27.981,41.2326,14.87,14.9407,39.781,4.61,37.795,32.4905,40.4063,21.2651,30.599,30.9109,33.9162,43.9879,13.16,51.368,33.7669,38.3601,11.2406,,29.6741,67.36,18.93,35.3535,13.2,67.0202,69.3069,44.8926,27.8461,,12.5296,33.8164,33.3854,95.5543,37.9642,41.0998,27.9468,34.9392,38.93,44.977,60.1487,62.3707,77.81839999999998,38.5867,64.202,41.66,34.3203,79.2561,51.2814,34.7783,60.63,33.0517,16.26,50.6978,11.76,36.1221,26.5894,196.03,42.3634,21.2374,34.9107,108.2283,14.05,62.5739,20.351,115.961,19.3235,22.3295,10.9664,42.0542,29.5881,66.1127,69.8904,36.4171,60.1492,36.2632,47.8434,15.08,19.9093,22.7541,28.45,15.555,59.5422,34.15,24.15,92.6884,,41.5246,30.9662,22.553,19.515,36.6098,13.55,39.9651,43.0559,42.7206,17.2,23.74,18.8975,43.3964,16.16,26.1,64.7559,23.14,14.27,33.6748,36.2657,25.0157,43.5869,57.279,32.6607,32.495,10.68,25.8383,48.1204,64.3444,41.1062,17.0549,47.73,27.6672,46.1944,57.6933,49.4,43.0593,72.5814,37.2578,55.3331,79.8009,57.1556,45.1738,29.3402,6.08,23.9193,23.064,18.4356,14.828,85.4,29.2349,33.0042,36.6969,20.0208,59.6389,32.1211,27.1361,36.1836,42.5455,46.9387,53.5028,59.1035,40.0651,46.4806,43.07,41.797,44.6,36.9227,31.1021,80.7095,29.29,48.0084,28.6034,28.016,16.1839,27.4393,19.3534,47.0348,25.5063,101.3249,62.6224,9.4588,11.32,44.6746,28.2064,15.9332,29.6648,25.58,34.3897,27.0273,40.2682,21.6452,42.153,52.1695,18.8,5.7,34.5332,17.91,31.56,42.9271,27.6423,8.4084,27.29,21.0081,16.9489,37.9908,,18.12,43.0117,30.0529,13.55,29.1698,29.9606,27.5001,44.6647,29.3503,33.7072,34.7571,36.1928,49.44,50.793,53.0099,24.1708,41.2346,50.9132,40.9301,21.3767,42.9568,34.8753,23.2163,38.4236,26.4906,52.677,38.9865,20.7987,66.9377,25.8006,55.3595,53.0787,23.49,44.1979,4.39,35.6798,20.615,43.9874,38.8683,28.5035,30.6285,28.7306,44.18,38.9879,47.2818,58.9058,32.5951,33.1191,37.3136,23.5757,23.6309,46.0959,25.5,10.3837,25.1,25.677,19.1514,102.17,43.4804,31.1334,29.5672,34.3679,22.4278,50.0352,33.4662,24.93,26.8107,31.5243,23.0724,58.3102,20.9175,38.2602,46.4245,71.4669,39.35,24.4875,44.8632,27.105,43.9012,32.3611,45.2337,18.6253,51.5744,23.6,33.7554,21.6284,37.5712,,15.1111,49.3013,,14.53,20.505,50.6619,10.49,3.55,30.6495,36.7952,25.6318,7.11,54.7593,28.35,39.5839,29.352,37.4845,16.7455,15.7274,17.7573,24.5947,36.0408,54.1138,7.59,44.4268,16.833,57.2485,72.5184,29.1684,48.6951,48.0219,38.65,53.2366,37.61,28.8218,56.3981,66.6628,25.39,34.1871,43.2403,50.6,53.9358,17.0443,29.1967,45.5458,11.57,27.68,61.8753,,60.425,38.0661,17.0265,29.2545,50.5679,29.28,,54.2971,61.2955,38.5409,,52.7064,16.9153,73.6289,29.1961,54.8275,15.44,27.1308,34.47,22.8978,66.749,85.47
2005-02-08,23.75,28.3399,40.45,29.7473,20.3535,76.7714,43.0817,31.2591,43.2585,53.07,31.85,37.2892,23.1066,42.6489,31.86,46.4069,33.0191,15.23,32.2163,37.8232,36.9885,66.6673,32.3269,33.3091,11.75,51.2236,19.9866,16.725,17.64,63.03,,18.16,36.3,19.76,54.5236,21.8264,54.3084,32.3952,57.7394,78.76,43.6281,59.7069,23.5492,63.639,43.3004,58.7828,8.56,47.2419,19.52,95.02,51.8101,45.4366,34.4162,39.79,38.337,35.9431,45.8091,68.8316,83.2107,58.0504,62.6804,50.3198,43.688,12.28,66.23,22.306,29.5946,43.6273,15.89,28.1191,22.4557,45.8801,21.6942,45.98,101.972,33.25,21.3427,46.5921,53.9149,46.5621,27.6788,26.6843,57.093,42.4576,37.5191,34.173,12.21,28.3646,,14.2696,22.8992,54.4326,31.5497,49.899,13.96,35.6791,17.9982,24.4944,27.6462,19.88,42.0536,40.7765,53.1103,57.252,55.0753,20.8956,207.7197,36.7843,11.0661,11.0761,21.538,74.32599999999998,27.62,43.8694,47.3373,45.1916,,27.7,7.18,52.0,18.24,19.2861,44.1771,33.2607,18.82,65.6211,21.96,14.23,38.2074,24.455,53.557,11.8716,33.9272,48.6876,37.9794,25.5063,65.7535,41.02,23.0076,17.0,48.4963,33.2579,55.47,29.5261,37.6147,38.4007,47.9743,28.1193,41.3526,14.71,14.8316,39.9195,4.6,39.265,32.5004,40.269,19.9703,30.3301,31.0439,34.0238,43.1874,13.21,51.2262,33.9547,38.7239,11.1317,,29.7754,65.6,18.81,35.6123,13.54,67.1852,69.5415,44.8339,27.8162,,12.2869,33.3836,33.3757,96.2404,38.2864,41.0719,27.8693,34.74,38.62,44.6581,60.2774,59.8642,77.76309999999998,38.9374,63.502,41.96,34.744,79.5891,51.7107,34.9703,60.71,33.6298,16.085,50.8419,12.09,35.7975,26.7475,198.64,42.4964,21.1487,34.891,110.1639,14.26,62.1816,20.3361,113.962,20.0868,22.1671,10.9974,41.5893,29.8943,65.5764,69.6937,36.2624,60.1492,36.09,47.088,15.03,19.6845,22.6726,28.51,15.2755,59.8669,34.19,24.17,92.29620000000001,,41.3769,30.5172,23.0452,18.96,36.0218,13.55,40.1579,43.3084,43.0044,17.0,24.71,18.8654,43.663,16.08,25.975,64.6389,23.63,14.4,33.1722,36.0652,24.7443,43.2646,58.1811,32.6607,32.7573,10.82,26.1066,48.7357,64.3734,41.261,17.3838,47.6,27.6478,46.7176,58.6852,49.24,42.9401,73.55889999999998,38.0517,54.9956,79.5524,57.7061,45.1162,29.2207,6.37,23.9094,23.0968,18.4008,14.748,84.4,28.9482,32.627,36.6969,20.3216,59.4911,31.7684,27.6111,36.7107,42.6496,47.1067,53.1072,59.1035,40.0156,46.6729,42.55,41.5132,44.14,36.8837,30.8606,81.1521,28.74,47.9002,28.7225,27.4299,16.1542,27.7964,19.5213,47.4641,25.5843,100.8429,62.9396,9.655,11.33,45.0955,28.7496,15.9529,29.7394,25.74,33.8601,26.9175,40.1291,21.5324,41.0527,51.973,19.0,6.02,34.6017,18.6471,31.97,43.1791,27.6666,8.4909,28.1,21.3365,16.7995,38.2845,,17.82,42.5531,30.5287,13.47,29.4224,30.4274,27.4608,44.5219,29.6201,34.2211,34.8314,36.577,49.01,50.8024,53.7852,24.7918,39.2104,50.3801,41.4834,21.2769,43.3826,35.7919,23.1672,38.5515,26.3924,51.9918,39.0051,20.8542,67.2118,25.7449,55.1814,53.3586,23.83,44.109,4.38,35.9376,20.82,44.7844,38.8545,28.5627,30.6,28.6316,44.55,38.7489,47.1842,60.2559,32.5855,32.7531,36.8758,23.257,23.8479,46.3207,25.785,10.4234,24.91,25.9762,18.9935,102.36,43.548,30.9408,29.8148,34.7376,22.303,47.2407,33.4472,24.85,26.9185,31.4588,23.0625,58.8787,21.0287,38.633,46.3848,70.9239,39.45,24.8629,44.9417,27.04,45.0258,32.1944,45.2145,18.8539,50.8461,22.09,34.1825,21.7521,37.3151,,15.1489,49.4932,,15.11,20.745,49.942,10.23,3.4562,30.6098,37.2809,25.2798,7.21,54.7297,28.37,39.7602,29.0949,37.3884,16.3998,16.0957,17.777,25.2419,36.3024,54.9948,7.61,44.3968,16.676,56.87,72.4597,29.0074,49.1548,48.415,39.06,57.1435,37.5,29.3208,56.4079,66.8034,25.4,33.9819,43.27,51.11,53.6753,17.0316,29.2062,45.1271,11.15,27.825,61.3384,,60.47,37.8152,16.987,29.4784,50.2749,28.92,,54.2581,61.1236,38.4229,,52.6965,17.0274,73.4191,29.206,55.2036,15.33,27.5012,34.36,22.8731,67.0108,85.1
2005-02-09,23.09,27.622,39.37,29.2476,20.0192,76.1118,42.9675,31.1766,43.3912,52.62,31.295,36.4654,23.0482,41.7525,30.61,46.8388,32.7737,15.11,32.1089,37.784,36.3048,68.2225,32.6761,32.9937,11.47,50.9403,19.4874,16.3681,17.94,62.09,,17.68,35.89,19.68,54.4941,23.7332,54.4273,32.4987,57.2672,76.44,42.8548,59.1154,22.2848,64.897,42.8717,58.1692,8.359999999999998,46.9845,19.43,93.88,52.6586,45.0006,33.9728,39.23,37.9085,35.2102,44.3218,67.9104,80.11579999999998,57.2882,63.804,50.1709,44.0632,11.94,65.03,22.1778,29.4111,43.0034,15.95,27.6796,22.1562,45.753,20.9022,46.87,101.7641,32.68,21.1842,46.8333,54.4249,46.2798,27.0732,26.5624,56.2175,42.0678,37.2551,33.421,12.1275,28.1062,,13.9715,22.8002,54.0431,31.6415,49.8129,13.56,35.7683,17.9883,23.861,28.1173,19.53,41.5517,40.6077,52.733,57.223,54.6548,20.7372,200.4238,35.8647,11.2157,11.0761,21.3651,73.8549,26.82,44.0286,47.4156,44.8272,,27.5737,6.89,49.48,17.63,19.2861,43.5524,32.8828,18.355,63.8075,21.59,14.17,38.2206,24.1377,53.1407,11.758,33.9706,48.7859,38.2188,25.1291,65.0796,40.99,22.4994,16.34,48.3339,32.5772,55.1404,29.0412,37.4419,37.4759,47.2229,27.7933,41.3064,14.74,14.5969,40.0185,4.55,39.495,31.7998,40.4612,19.9105,30.7085,30.9014,33.4072,43.1874,13.0,51.0183,33.4407,38.9981,11.0625,,30.1071,63.55,18.475,35.682,13.39,66.6999,68.7497,44.9024,27.1247,,12.2495,33.0704,32.6455,96.1211,38.4096,40.1994,27.8499,34.6105,38.11,44.5831,59.6239,60.8126,76.0954,38.6695,63.9623,41.4,34.4953,78.5019,51.5302,34.6439,58.89,34.4971,15.67,50.5538,11.68,34.9476,26.7475,191.58,41.9545,20.9119,35.3245,110.0652,13.9,61.5735,20.1922,110.9636,19.5361,21.8615,10.8642,41.4014,29.9692,66.1322,69.2705,35.9917,59.51,35.9841,46.4742,14.63,21.0431,22.5526,28.95,15.42,59.3356,33.22,23.88,90.894,,40.7562,30.1169,22.9369,18.85,35.3484,13.56,39.8415,42.5012,42.52,16.8,24.33,18.7725,43.1495,15.6,25.49,64.5025,23.38,14.26,32.8864,35.8168,24.4087,43.3329,57.1262,32.4875,32.495,10.53,26.1632,47.4754,64.2577,41.3674,17.1945,46.93,27.1535,46.5432,57.4675,48.6,42.4431,73.0553,37.1499,54.251,79.09529999999998,57.4603,44.7519,28.8026,6.05,23.7527,22.8543,17.8985,14.3184,84.79999999999998,28.3796,32.0364,35.9328,19.9335,58.6337,31.3274,26.8095,36.0841,42.0892,46.6619,52.3655,58.7612,39.8275,46.4707,41.9,41.1022,43.75,36.3281,31.3919,80.1995,27.65,47.0922,28.0772,27.2378,15.5405,27.6999,19.7275,47.1158,25.4185,99.6822,62.0674,9.5383,11.23,44.7588,28.7782,15.7354,29.814,25.765,33.7938,27.177,40.2284,21.57,40.7153,51.2754,19.06,5.79,34.7583,18.2586,30.91,42.588,26.7303,8.193899999999998,27.36,21.1019,16.6998,38.0887,,17.52,42.0403,30.15,13.17,29.7721,29.912,27.2151,44.1982,29.1047,33.7357,34.8221,35.9782,48.24,50.8024,53.2909,24.3066,38.776,49.9246,40.9025,20.9676,42.4343,35.224,22.549,39.1023,26.4415,51.4223,38.9306,20.845,66.5595,25.5083,56.4087,53.7929,23.41,43.4665,4.28,35.3922,20.215,43.4723,38.5373,28.701,30.6665,28.2848,44.43,38.2508,46.4422,59.6305,32.251,32.3178,36.6423,22.8088,23.3151,46.1936,25.275,10.4234,25.05,25.8715,18.4114,101.07,43.461,29.9383,29.6266,34.6686,22.0628,47.1024,33.1334,24.28,26.9969,31.2342,22.7852,59.4099,20.5445,38.7605,45.9091,70.4099,38.75,25.2773,44.4507,26.82,44.6805,32.2924,44.3233,18.7546,49.9284,21.55,34.0272,21.5488,36.0216,,15.1773,49.7713,,14.65,20.895,49.0149,10.25,3.5912,30.0544,36.8243,24.9227,7.16,54.1963,27.54,40.1031,29.1048,36.5808,16.0638,15.8767,17.7078,24.525,35.9633,53.1071,7.69,43.5525,16.5778,57.0447,72.1858,28.6095,48.8733,48.1754,37.47,56.0411,37.38,29.0194,56.1724,66.8128,24.62,33.6184,42.9331,50.0,53.2701,16.9637,28.9542,44.5065,10.9,28.055,60.3526,13.6952,59.565,37.6665,16.8389,28.904,49.6323,28.48,,53.72,59.9773,38.2648,,50.6474,16.8407,72.9423,28.4546,54.9661,15.0,28.1532,33.59,22.4528,66.4,84.19
2005-02-10,23.04,27.8393,39.18,29.4356,19.852,75.9444,42.7963,31.5522,43.6471,53.3,31.34,36.1221,23.2235,41.4309,29.37,46.848,32.6887,15.36,33.4652,38.0588,36.3248,71.451,33.0791,32.6192,11.23,51.0575,19.8368,16.5168,17.75,62.78,,17.56,35.78,19.61,53.7178,23.3266,56.4696,33.7994,57.7491,74.01999999999998,42.8744,60.6476,22.5713,65.0461,43.0081,58.2861,8.29,47.2762,19.38,94.5,52.4056,45.4754,33.6378,38.8,38.0514,35.2621,45.1787,67.7421,81.11159999999998,57.4934,65.143,50.1312,45.4355,11.89,65.92,22.8927,29.4594,43.3599,15.76,27.9949,22.2404,45.7139,20.9286,46.7,102.596,32.65,21.4739,46.5632,54.5979,46.0916,26.557,26.4404,56.516,42.7268,37.4471,33.4548,12.0978,27.8526,,14.051,22.6519,53.2836,31.7608,49.8033,13.6,35.2035,18.6222,23.503,28.651,19.6,41.5888,40.4587,52.2397,57.3003,54.4306,20.9154,203.5929,35.9912,11.2655,11.1884,21.4095,74.2106,27.0,44.7848,48.6932,45.172,,27.5445,7.15,47.96,17.58,19.3802,43.8102,32.9723,21.545,63.658,21.5,14.12,38.7156,24.3162,54.314,11.5744,34.1392,49.7288,38.5504,25.2482,65.5609,41.57,22.407,16.32,48.9737,32.6438,54.6409,29.0412,36.9715,37.1414,48.4439,28.1687,41.3341,15.29,14.6461,41.5816,4.54,40.61,32.303,40.8181,19.8209,30.7682,30.9489,33.3582,42.713,13.0,51.3964,33.4753,39.8753,11.1812,,30.2913,62.61,18.505,36.6378,13.05,67.3114,68.7692,44.697,26.8112,,12.2309,34.1848,32.2365,95.9222,38.7792,39.9395,27.9371,34.471,37.76,44.7519,59.2575,59.2158,77.0629,38.5282,60.779,41.45,34.5414,78.63899999999998,51.8814,34.6055,58.13,35.2198,15.52,50.5538,11.76,35.024,26.8266,187.98,41.907,21.198,35.2457,111.3688,13.77,62.0443,20.8525,113.6422,19.6134,21.8424,10.796,41.9058,30.9074,65.7909,70.3332,35.7693,59.7165,37.004,46.4978,14.5,20.9942,22.5526,28.65,15.4682,60.0244,33.05,23.71,90.9529,,41.2291,30.4684,23.1338,19.455,35.3294,13.6,39.7921,43.4768,43.1463,16.96,24.47,18.7469,43.6531,15.04,25.525,64.444,23.25,14.75,33.0145,35.7691,24.4877,43.5478,57.3973,32.6126,32.563,10.28,26.2243,48.0014,64.5372,41.1159,17.2443,47.5,27.1342,47.0316,57.7031,48.82,42.2443,73.0159,37.3852,54.4,78.986,58.6892,46.7943,29.3899,6.23,23.5469,23.4244,18.003,14.5382,84.12,28.2313,31.8032,36.0199,19.914,58.5253,31.4548,27.2153,35.9249,42.3074,46.4938,52.4248,58.8688,39.0258,46.3918,41.84,40.9652,43.55,36.3866,31.3629,80.7288,27.25,47.9002,27.5113,27.558,15.7187,27.7578,20.2647,47.6828,25.4088,100.2429,61.215,9.5631,11.27,46.0263,28.7401,15.7749,30.5451,26.775,33.548,27.8605,41.1125,21.523,41.0576,51.7765,19.825,5.81,35.0225,18.5774,30.79,42.9465,27.424,8.3853,27.52,20.9987,16.8294,38.0495,,18.25,42.0995,30.4219,13.14,30.7825,30.0968,27.392,44.7408,29.294,34.1069,35.0357,36.1628,47.47,50.8024,53.4557,24.3066,38.9636,50.0312,40.4784,21.2046,42.4795,35.4482,22.3724,39.2007,26.5103,51.2969,38.8375,20.956,67.0795,25.2068,56.9927,53.6674,23.1,43.8223,4.16,35.0154,20.415,43.6473,39.0109,29.7278,30.695,28.5028,46.0,38.0416,47.4674,59.2632,31.9738,32.209,37.119,22.9083,22.9007,46.5943,25.09,10.3241,24.98,25.8316,18.737,99.72000000000001,44.0025,30.3136,30.5032,35.9946,22.9753,46.7173,33.238,24.38,27.1636,31.3653,23.3001,60.0063,20.5053,39.153,45.9487,70.3032,39.05,24.9994,44.5194,27.32,46.0518,32.1257,44.8312,18.685,50.068,21.0,33.8913,21.3013,35.1149,,15.0921,49.9344,,14.84,20.86,48.3837,10.09,3.525,30.0841,36.4454,25.0021,7.17,52.1217,27.73,40.1912,29.436,37.2922,16.3306,16.4541,17.7573,24.8038,35.9149,52.7767,7.75,43.9771,16.6465,57.6172,72.8803,28.5337,49.0704,49.2108,37.54,57.6077,37.0,30.2545,55.8683,67.4406,24.65,33.5997,43.1016,49.5,53.463,17.2354,28.7261,47.5507,10.74,28.68,60.9675,13.8651,60.76,37.4621,17.6685,28.9819,49.3866,28.11,,54.1333,60.1684,38.3934,,51.5045,16.7567,71.5214,28.6227,55.7578,15.04,28.5236,33.44,22.9176,66.4097,85.25
2005-02-11,23.72,28.1982,40.605,29.8512,20.1667,77.2046,43.957,31.8363,44.7747,53.21,31.85,37.3186,23.613,41.8402,29.54,47.0593,32.6132,15.53,33.3453,38.2257,36.6043,71.9727,33.0791,33.4569,11.4,51.7022,20.4658,16.9927,18.11,63.42,,17.68,35.78,19.66,53.7866,24.4301,56.9752,33.8438,58.5008,76.43,44.0882,61.5591,22.8577,65.1859,43.3004,58.9483,8.519999999999998,47.3448,19.36,94.93,52.6781,45.3688,33.894,39.45,38.318,35.2491,44.9423,68.5048,81.4338,57.6205,65.9483,50.1908,46.3833,11.93,66.7,23.6668,29.4884,43.657,15.94,28.1382,22.5492,46.2125,21.6546,46.78,103.0516,33.0,21.8874,46.6693,55.0078,46.4868,26.557,26.703,56.9438,43.061,38.3737,33.6331,12.507,28.1549,,14.1702,22.8596,54.0918,31.7608,50.0522,14.07,35.4413,18.6321,24.0262,29.5372,19.81,42.0071,40.8857,52.8685,57.7735,54.5708,20.8098,206.8311,36.2539,11.774,11.2259,21.7108,75.36419999999998,27.15,45.5111,48.4827,45.7433,,27.4959,7.25,48.51,17.7,19.7267,44.5539,33.3403,22.76,62.2828,21.46,14.2,39.3954,24.7426,55.0332,11.723,34.0332,50.1904,38.6148,24.9108,66.7451,39.99,22.44,16.46,49.2148,31.8595,55.4501,29.0313,37.9315,38.263,48.5096,28.4256,41.3988,15.29,14.6188,42.007,4.49,41.035,32.5102,40.8181,20.0798,31.0172,31.0629,33.9749,42.5252,13.13,52.4738,33.7274,40.4984,11.2406,,30.3374,63.22,18.645,37.3148,13.39,67.9617,68.6324,44.2666,27.6819,,12.1935,35.0689,32.5773,97.4535,38.9213,40.2365,28.0243,34.9989,38.57,44.63,60.4062,60.4062,77.78149999999998,38.3578,61.709,42.06,34.873,79.95149999999998,52.0277,34.7783,58.78,35.4029,16.4,50.5538,11.92,35.4633,26.8859,187.4,41.4982,21.3953,36.0635,111.3688,14.0,62.1914,20.8028,112.4428,19.6134,21.9379,10.8177,42.341,31.0116,66.4248,72.5766,36.098,60.3458,37.6583,46.427,14.7,20.8183,22.8021,29.28,15.42,60.2605,33.42,24.05,91.4823,,41.3177,30.7808,23.7934,20.07,35.3484,13.68,40.303,43.9473,43.5328,17.2,24.92,18.7084,42.952,15.28,25.845,64.9021,23.64,14.9,34.0296,35.7977,24.8825,43.8506,55.603,32.5067,32.5241,10.26,26.3656,49.5296,65.2117,41.3674,17.2243,47.68,26.8047,47.0017,56.5738,49.31,42.5127,73.5787,38.385,55.0948,80.84439999999998,58.6793,47.2738,29.6637,6.4,23.7625,23.503,17.9284,14.4683,81.92,28.429,32.3144,35.9715,19.9431,58.9392,31.6018,28.0466,36.1438,42.7636,46.5729,52.8303,59.0252,39.5306,46.811,42.68,40.9358,44.01,36.5718,31.8652,80.8635,27.39,47.7559,28.6828,28.021,15.7484,28.1921,20.4757,48.8573,25.3211,99.5937,60.759,9.5631,11.73,46.1352,28.864,16.0815,31.0324,27.59,33.756,28.105,41.8475,21.4948,41.395,52.7786,20.345,5.88,34.9834,19.1451,32.54,43.4698,27.6084,8.6295,29.45,21.3459,16.939,38.5783,,18.19,42.4052,30.8297,13.35,31.6374,30.476,27.677,45.0264,29.3383,34.0308,35.2122,36.7965,48.29,50.6619,53.3975,24.4037,39.2598,50.5449,40.4507,21.5314,43.073,34.8205,22.5392,39.1909,26.5201,50.8625,39.0331,21.0855,67.4576,25.2392,57.4579,54.0438,23.09,44.3165,4.15,35.8583,20.825,43.6278,38.9741,30.1128,31.1224,28.582,46.95,38.5198,47.7798,59.8787,31.7635,32.7827,37.0217,23.257,22.9994,47.337,25.09,10.6914,24.96,26.1208,19.1514,103.02,44.2635,30.7038,30.7311,36.2017,22.6391,48.1985,33.0669,24.81,27.4576,31.0471,23.3199,60.5002,21.0549,39.5257,47.2868,70.3517,40.4,24.7069,44.873,27.685,46.2998,32.3709,45.3199,18.9931,50.8262,21.6,33.8233,21.4428,35.8255,,15.0921,50.6921,,15.59,20.8,48.5514,10.09,3.5887,30.9273,36.8874,25.1409,7.21,53.0108,27.83,41.1512,30.1232,37.8787,16.4689,16.5785,17.7869,25.7497,36.3024,53.8307,7.88,43.8373,16.833,58.6748,73.5552,28.7042,49.8022,48.6068,37.7,58.4104,37.44,30.3484,56.1234,67.0939,25.48,33.8514,42.4276,50.13,54.0419,17.3883,28.6643,48.6345,10.96,29.055,61.6703,13.9546,60.0,37.5829,17.5104,28.9819,49.2353,30.65,,54.1957,60.1015,38.7395,,52.0266,16.7286,71.96,29.4136,55.5302,15.13,28.9163,34.15,23.2291,66.9236,85.09
2005-02-14,24.02,28.236,42.315,29.7869,19.8422,77.2538,44.233,31.8363,44.3578,53.36,31.735,36.8773,23.9538,41.4602,29.8,47.4729,32.8397,15.57,33.9048,38.5595,36.9935,70.3683,33.491,33.7328,11.42,51.8976,20.4158,16.9828,18.24,63.25,,17.77,36.03,19.7,53.8357,24.2268,57.1041,33.6024,58.308,76.31999999999998,44.1959,61.6658,22.5713,65.1673,43.3881,58.7828,8.87,46.8387,19.75,95.0,52.5808,45.4754,33.8152,39.32,38.4513,35.4632,43.2877,67.7321,81.59,57.4934,65.8453,50.1511,46.1957,12.08,66.99,23.223,29.5753,43.6471,15.8,28.4198,22.5773,46.2321,21.846,46.85,102.4078,32.94,21.7512,46.5921,55.1626,46.3457,26.3684,26.75,56.8642,42.8011,38.0568,33.368,12.5664,28.1403,,14.1404,22.3057,54.2574,31.5772,51.2484,14.04,35.4215,18.7708,23.8977,29.4516,19.25,42.3604,41.8289,52.7137,58.015,54.7296,20.6646,208.5588,36.3172,12.2625,11.57,21.617,75.7967,26.75,45.2425,49.4275,45.8122,,27.6902,7.18,47.47,17.97,19.5435,44.4746,33.2408,22.925,61.9838,21.19,14.21,39.5076,24.2765,55.7564,11.9066,34.2934,50.2985,38.6701,25.2284,66.7643,39.56,22.704,16.76,48.954,31.1566,55.1704,29.0808,37.778,38.2728,49.1201,28.2873,41.2972,15.33,14.9516,41.6706,4.47,42.16,32.3721,41.398,20.0699,30.818,31.3671,33.9259,43.3851,13.04,52.3509,33.5198,40.947,11.2504,,30.2729,63.24,18.855,36.9962,13.31,67.8161,69.258,44.3644,27.3088,,12.2309,35.1518,32.2852,95.7631,39.2151,40.1252,28.218,35.1782,38.34,44.4987,60.3765,61.1417,77.53279999999998,39.0056,64.154,41.75,35.0019,78.49209999999998,51.7155,34.8647,58.78,35.9232,16.51,50.525,11.85,35.5588,27.6767,192.99,41.7739,21.1092,36.1029,110.5787,14.28,62.1424,20.5645,115.6712,19.4685,21.957,10.92,42.1531,30.7934,67.1464,71.7796,36.1367,59.9722,37.8122,46.6945,14.6,20.3003,22.711,29.3,15.4586,60.7132,33.13,23.73,91.7471,,41.1404,30.4391,23.9312,20.04,35.3389,13.62,40.1195,44.3286,43.4252,17.0,25.0,18.9231,43.8111,15.76,25.75,64.3174,23.53,14.72,33.527,35.8168,25.0453,43.8994,55.9875,32.4875,32.7087,10.28,26.4221,49.351,65.6743,41.4641,17.3938,46.77,26.7756,46.7724,56.348,48.85,42.284,72.6406,38.4536,54.9956,80.6853,58.3647,46.8518,29.4148,6.35,23.7821,23.5227,17.4161,14.2484,82.0,28.3054,32.2598,35.8361,20.0305,58.7323,31.9545,27.9179,36.1935,42.6298,47.1759,51.8413,59.0839,39.7187,46.4214,43.8,40.9749,44.04,37.0202,31.1987,81.4119,28.06,47.6838,28.5835,28.3362,16.0354,28.3851,20.5544,48.8167,25.3601,99.6428,60.8284,9.6997,11.81,45.8134,28.7782,15.7749,30.9628,27.125,34.2006,27.6557,41.917,21.617,41.6689,53.2993,19.76,5.87,34.5234,19.1352,33.995,43.3244,27.9092,8.448,29.24,21.4585,16.7496,38.5391,,18.43,42.2572,29.1498,13.31,31.6034,30.2815,27.2249,44.798,29.1088,34.2401,35.3144,36.7915,48.33,50.8773,53.1068,24.7239,39.1018,51.078,40.7918,21.8008,43.0536,34.1879,22.4117,39.2794,26.4612,50.6695,39.1915,21.178,67.4671,25.5965,57.5569,54.0245,22.91,44.277,3.98,36.8599,20.72,43.1516,39.0844,29.787,31.1413,28.2155,46.29,38.4002,47.7309,58.8463,31.687,33.3862,37.1871,22.8585,22.8119,47.5813,24.925,10.89,25.23,26.0311,19.1711,102.29,44.0121,30.8174,30.3299,35.9207,22.5143,48.3763,32.7341,25.29,27.2224,31.2436,23.2902,60.6493,21.1072,39.7318,46.8011,70.7299,40.2,24.3754,44.6275,27.64,46.4214,32.5181,45.2624,18.9732,50.1678,22.07,34.3185,21.54,34.5513,,15.13,51.1142,,15.37,20.75,49.0149,10.16,3.6412,30.7785,36.6543,25.0814,7.25,53.5739,27.57,41.112,30.148,37.523,16.4492,16.6233,17.6387,25.8393,36.2443,53.3273,8.0,44.4367,16.9311,58.2479,73.3596,28.6379,50.0555,48.5588,37.52,56.5826,36.53,30.5762,55.8977,67.3656,26.45,33.7395,41.8726,49.71,53.1543,17.3883,29.1444,49.0384,11.39,28.765,61.7582,13.883,60.575,37.8338,17.4117,29.2934,49.2826,30.14,,54.4375,59.7003,39.0956,,52.5503,16.8687,72.23659999999998,29.4632,56.2428,15.07,29.1164,34.33,23.6197,66.846,83.61
2005-02-15,24.39,28.1604,44.205,30.5289,20.2257,77.7461,44.5945,31.937,44.3862,54.14,32.455,36.6027,23.9249,41.3627,29.09,47.3534,32.7076,15.71,34.3869,38.9227,36.9037,70.7226,34.0731,33.2894,11.38,51.9562,20.4757,17.3397,17.68,63.69,,17.69,36.14,19.77,53.364,24.5559,57.0843,33.627,58.2888,77.29999999999998,44.4895,62.0149,22.3342,65.8103,43.0958,59.4158,8.859999999999998,46.7529,20.04,95.14,52.9603,45.6014,33.8743,39.32,38.2704,35.995,43.3862,67.7321,81.66809999999998,58.0407,66.2948,50.1114,45.8996,12.0,67.04,23.2181,29.7202,43.6471,15.76,28.5359,22.3901,46.6427,22.176,46.1,102.0117,33.0,21.8626,46.6114,55.3721,46.4868,26.7357,27.3127,56.6553,42.4669,37.9704,33.3825,12.4641,28.1257,,16.4259,22.187,55.0558,31.6873,50.4828,14.25,35.7584,18.7213,24.5357,29.6986,19.39,42.4812,42.2459,52.1623,58.691,55.0379,21.3576,209.398,35.8841,12.6812,11.7224,20.6934,75.4603,26.805,45.8793,49.6282,46.2948,,28.0497,7.26,47.36,17.92,19.7663,44.425,33.2607,22.505,61.2763,21.78,14.58,39.6792,24.0732,55.814,11.8279,34.197,50.8288,39.0477,25.6254,63.6355,40.2,23.0208,16.86,49.2049,30.6387,54.8307,29.2688,37.6627,38.1253,50.2847,28.3565,41.2326,15.21,14.9789,41.6706,4.51,42.7,32.1452,41.3416,20.0699,31.1864,31.1105,33.7889,44.1757,13.38,53.2205,33.6137,40.9569,11.6462,,30.494,64.16,19.1225,37.5039,13.18,67.8258,69.0234,43.9243,27.7516,,12.2869,35.1149,32.5383,96.6282,39.0635,40.4222,28.4699,35.2678,38.42,44.0954,61.7827,61.1804,78.22379999999998,38.8741,63.7034,41.66,34.919,78.23739999999998,52.1399,34.9319,57.98,35.7979,16.53,50.5538,11.77,35.5397,28.1314,195.23,41.7454,21.2572,36.1423,111.3095,14.45,61.652,20.5347,116.1409,19.5554,22.1003,10.9045,42.2619,30.9628,68.0044,71.3959,36.069,60.5523,37.5717,47.0565,14.78,20.6424,22.9893,29.83,15.42,61.3232,33.06,24.0,92.4923,,41.2783,30.7808,24.0887,20.26,35.0923,13.44,40.055,44.0364,43.205,17.08,25.11,18.8879,43.7321,16.16,26.7,64.2296,23.17,14.82,33.2806,35.8646,25.4451,43.8994,55.7706,32.5741,32.6504,10.23,26.3938,50.1151,64.5661,41.261,17.8324,47.4,26.7659,46.3987,55.6605,49.67,42.4828,72.37399999999998,38.1595,55.3629,79.6618,58.9448,46.7655,29.4646,6.47,23.8115,24.2926,17.4012,14.2884,83.28,28.6762,32.2449,35.7684,20.1664,58.6633,32.4935,28.1357,35.915,43.8843,47.255,51.5743,59.1133,40.3521,46.737,44.69,40.9652,44.17,37.2639,31.5657,82.7398,28.82,47.6549,25.2675,27.9963,15.8375,28.3272,20.8946,48.5981,25.4389,100.656,61.9484,9.6749,11.92,45.8134,28.8449,15.7057,30.9728,26.915,34.333,27.6358,42.0561,21.6264,41.708,53.0242,20.025,5.8,34.2494,19.2647,34.36,43.0725,27.5259,8.523899999999998,29.95,21.5711,16.8194,38.0397,,18.74,42.1241,29.8101,13.29,31.5743,30.4468,26.9399,44.8551,29.3302,34.1259,35.398,36.8214,48.51,50.2592,52.9517,24.4716,39.6943,51.834,40.6535,21.7908,43.5085,34.1231,22.4509,39.3483,26.2157,50.6985,39.1728,20.8912,68.1573,25.6336,57.9528,54.4298,23.3,44.6624,4.04,36.5723,21.51,43.2391,38.0269,29.6389,31.3218,28.156,46.12,39.3067,47.77,59.1242,31.6775,33.5642,37.0704,23.2071,23.0685,47.8256,25.255,10.8701,25.11,26.1558,18.9935,102.97,44.3022,30.9705,30.3645,35.7974,22.3318,49.1959,32.8903,26.44,27.4773,31.1688,23.2704,60.7612,21.1268,39.3001,46.93,70.536,39.81,24.3023,44.5489,28.225,46.2707,32.3219,45.3008,18.9334,50.2775,22.25,33.969,21.6726,34.5513,,15.1394,51.4115,,15.86,20.475,49.1333,10.46,3.6388,30.9372,36.8049,25.1409,7.17,54.1172,27.38,41.1512,30.3951,37.3884,16.4788,16.3147,17.8857,25.9289,36.5542,53.1228,7.849999999999999,45.0612,17.0686,58.1218,75.3354,28.6569,49.7834,49.2635,37.27,57.6947,36.81,30.7595,55.5249,67.7498,27.13,33.8048,41.9915,49.91,52.9806,17.4526,29.1396,48.9793,11.89,28.87,62.91,13.8651,61.31,38.5492,17.5499,29.2058,49.8024,30.15,,53.8058,59.9009,39.145,,52.0661,16.9713,72.5703,29.6914,56.3318,15.6,28.9756,33.98,23.7681,66.6424,83.17
