Date,A,AA,AAPL,ABC,ABI,ABK,ABT,ACAS,ACE,ACS,ADBE,ADI,ADM,ADP,ADSK,AEE,AEP,AES,AET,AFL,AGN,AIG,AIV,AIZ,AKAM,ALL,ALTR,AMAT,AMD,AMGN,AMP,AMT,AMZN,AN,ANF,AOC,APA,APC,APD,APOL,ASD,ASH,ATI,AVB,AVP,AVY,AW,AXP,AYE,AZO,BA,BAC,BAX,BBBY,BBT,BBY,BC,BCR,BDK,BDX,BEN,BF.B,BHI,BIG,BIIB,BJS,BK,BLL,BMC,BMS,BMY,BNI,BRCM,BRL,BSC,BSX,BTU,BUD,BXP,C,CA,CAG,CAH,CAT,CB,CBE,CBG,CBH,CBS,CC,CCE,CCL,CCU,CEG,CELG,CFC,CHK,CHRW,CI,CIEN,CINF,CIT,CL,CLX,CMA,CMCSA,CME,CMI,CMS,CNP,CNX,COF,COH,COL,COP,COST,COV,CPB,CPWR,CSC,CSCO,CSX,CTAS,CTL,CTSH,CTX,CTXS,CVG,CVH,CVS,CVX,CZN,D,DD,DDR,DDS,DE,DELL,DF,DFS,DGX,DHI,DHR,DIS,DJ,DOV,DOW,DRI,DTE,DTV,DUK,DVN,DYN,EBAY,ECL,ED,EDS,EFX,EIX,EK,EL,EMC,EMN,EMR,EOG,EP,EQ,EQR,ERTS,ESRX,ESV,ETFC,ETN,ETR,EXC,EXPD,EXPE,F,FCX,FDO,FDX,FE,FHN,FII,FIS,FISV,FITB,FLR,FNM,FO,FPL,FRE,FRX,GAS,GCI,GD,GE,GENZ,GGP,GILD,GIS,GLW,GM,GNW,GOOG,GPC,GPS,GR,GS,GT,GWW,HAL,HAR,HAS,HBAN,HCBK,HD,HES,HET,HIG,HNZ,HOG,HON,HOT,HPC,HPQ,HRB,HSP,HST,HSY,HUM,IACI,IBM,ICE,IFF,IGT,INTC,INTU,IP,IPG,IR,ITT,ITW,JAVAD,JBL,JCI,JCP,JDSU,JEC,JNJ,JNPR,JNS,JNY,JPM,JWN,K,KBH,KEY,KFT,KG,KIM,KLAC,KMB,KO,KR,KSS,LEG,LEH,LEN,LH,LIZ,LLL,LLTC,LLY,LM,LMT,LNC,LOW,LSI,LTD,LTR,LUK,LUV,LXK,M,MAR,MAS,MAT,MBI,MCD,MCHP,MCK,MCO,MDP,MDT,MER,MET,MHP,MHS,MI,MIL,MKC,MMC,MMM,MNST,MO,MOLX,MON,MOT,MRK,MRO,MS,MSFT,MTB,MTG,MTW,MU,MUR,MWV,MYL,NBL,NBR,NCC,NE,NEM,NI,NKE,NOC,NOV,NOVL,NSC,NSM,NTAP,NTRS,NUE,NVDA,NVLS,NWL,NWS.A,NYT,NYX,ODP,OMC,OMX,ORCL,OXY,PAYX,PBG,PBI,PCAR,PCG,PCL,PCP,PDCO,PEG,PEP,PFE,PFG,PG,PGN,PGR,PH,PHM,PKI,PLD,PLL,PNC,PNW,POM,PPG,PPL,PRU,PSA,PTV,PX,Q,QCOM,QLGC,R,RAI,RDC,RF,RHI,RIG,RL,ROH,ROK,RRD,RSH,RTN,RX,S,SAF,SBUX,SCHW,SE,SEE,SGP,SHLD,SHW,SIAL,SII,SLB,SLE,SLM,SNA,SNDK,SNV,SO,SOV,SPG,SPLS,SRE,SSP,STI,STJ,STR,STT,STZ,SUN,SVU,SWK,SWY,SYK,SYMC,SYY,T,TAP,TDC,TE,TEG,TEL,TER,TEX,TGT,THC,TIE,TIF,TIN,TJX,TLAB,TMK,TMO,TRB,TROW,TRV,TSN,TSO,TWX,TXN,TXT,TYC,UIS,UNH,UNM,UNP,UPS,USB,UST,UTX,VAR,VFC,VIA.B,VLO,VMC,VNO,VRSN,VZ,WAG,WAT,WB,WEN,WFC,WFMI,WFR,WFT,WHR,WIN,WLP,WM,WMB,WMI,WMT,WPI,WU,WWY,WY,WYE,WYN,X,XEL,XL,XLNX,XOM,XRX,XTO,YHOO,YUM,ZION,ZMH
2005-01-03,24.1,30.0403,32.39,29.0299,20.6583,81.054,43.5037,30.6361,40.7,60.6,31.5,36.3084,21.8797,43.1653,38.3,46.1312,32.2923,13.67,31.0224,39.4037,40.5217,65.0628,34.5656,30.1555,12.98,49.9147,20.7553,17.0522,22.11,64.2,,18.0,44.95,19.01,46.4257,23.3266,50.0579,31.7055,56.1396,80.58,40.5741,56.6813,21.4452,70.125,37.7661,58.1595,9.32,48.3423,19.85,91.31,50.2123,45.2138,34.091,39.84,39.6548,38.8486,48.754,63.2795,87.62359999999998,54.7277,65.452,48.3848,41.4666,12.14,66.92,22.7842,32.0844,43.5778,18.65,27.9375,23.6583,46.2419,21.4566,46.0,100.675,34.0,20.0329,48.9362,58.7964,46.1104,30.8359,26.9249,57.909,43.6012,36.9622,32.722,11.0715,31.0083,,15.5316,20.8021,56.7112,30.9346,41.8313,13.335,36.6798,15.918,25.7198,26.8655,23.66,41.4029,45.5322,49.013,56.4129,57.3642,21.9582,226.0827,40.9201,10.3982,10.5611,20.2736,80.7954,28.075,39.2028,42.4518,47.5163,,29.1476,6.41,56.37,19.42,19.8207,43.2747,35.2202,21.875,59.5423,24.55,14.99,34.914,22.4771,49.6396,11.9766,32.7659,48.3733,40.8619,26.8262,71.6357,42.09,21.813,16.7,46.8583,29.9655,57.6876,27.5174,40.8102,41.254,46.8473,27.408,40.0225,16.74,13.8712,38.5147,4.7,58.595,34.5329,40.0493,23.0181,27.9304,30.5021,31.8998,45.2529,14.97,54.279,34.6961,35.5051,10.2412,,33.1841,61.63,19.085,31.1122,14.95,70.4659,66.081,43.3277,27.8859,,13.4793,34.5711,30.5327,98.5571,37.5472,40.1437,29.4579,35.2878,40.16,44.6581,53.9794,68.3584,71.0832,36.5312,70.5685,44.94,33.9611,80.02979999999998,51.2161,35.239,58.2,34.4578,17.77,47.4621,11.84,38.8148,26.6215,197.4,41.8119,20.7146,32.3586,103.3458,14.67,65.2417,19.2389,125.5361,18.6154,23.5997,11.543,42.519,26.7117,64.7085,67.9914,37.7613,60.1295,34.2427,45.9155,14.85,20.6424,23.6322,33.3,16.6729,54.4057,29.86,27.62,97.0419,,42.165,33.6802,23.2716,22.015,39.9199,13.4,39.7921,41.8029,45.5044,20.88,25.58,20.4453,41.1472,25.68,23.85,61.7349,27.23,16.82,36.2667,37.3806,23.0615,43.6357,51.7582,32.6029,34.6322,12.45,27.2602,46.4036,63.3326,40.5354,17.643,49.9,27.4249,43.8523,55.6605,49.83,41.9262,72.4234,38.0528,56.3556,72.80459999999998,54.462,44.874,28.8375,5.53,22.5376,23.0313,23.0011,16.3267,85.29999999999998,28.607,31.1381,35.165,18.8659,62.3686,30.9648,26.3741,31.2404,43.0413,53.6315,48.9686,58.7318,40.1541,45.1196,41.95,43.2551,49.82,37.4783,32.1163,79.0642,33.95,44.3365,29.6161,27.2526,17.0846,30.8752,18.02,45.1131,26.1303,106.0759,68.6389,9.352,12.38,39.7532,32.5899,17.4365,30.5103,25.26,35.1736,24.323,43.5063,21.087,44.3047,53.1028,17.645,6.8,35.4531,17.7307,33.28,47.2198,25.469,8.0454,28.03,22.8002,18.593,39.8022,,17.38,41.8135,30.6355,13.88,28.3489,32.8574,26.5861,44.103,32.4907,31.5469,35.7138,32.9297,43.48,48.48,50.6162,26.4996,40.425,53.6961,41.121,21.4416,49.1756,31.7818,22.0536,42.6929,28.6998,54.9439,40.7092,19.6699,64.5646,24.9145,54.2905,54.285,25.18,43.8322,4.4,42.3437,18.44,46.4269,36.3026,25.0776,33.0135,29.3251,42.0,41.8368,43.3962,49.0286,32.9775,32.8916,37.6542,23.0876,24.4991,50.8827,31.645,11.6687,24.2,26.7392,20.7202,100.94,43.0936,29.3111,26.5956,32.9285,23.2442,53.2544,32.6866,25.07,27.938,31.0752,22.3683,61.1339,21.9578,35.9057,47.8616,71.7093,41.6,24.8288,48.2417,23.26,39.3416,33.8619,46.9587,19.8478,49.8286,26.16,36.3052,22.6714,37.2757,,14.6096,47.9105,,17.1,24.15,51.944,10.99,3.0175,31.9588,33.2298,24.8992,8.87,56.4388,30.14,41.1904,30.8797,36.004,18.1089,15.7822,19.2988,24.8237,35.4548,56.442,10.17,43.5625,17.5407,65.2148,83.4734,29.5568,45.2705,49.4792,43.49,53.3526,36.6,22.3698,52.9743,71.5731,33.31,37.6715,39.3949,47.05,50.7325,16.6707,29.5817,47.0806,13.1,25.65,69.2547,,57.625,38.3718,16.0389,29.1571,50.7946,32.6,,53.7134,64.2853,41.8738,,50.4799,17.0087,73.5716,29.5323,50.4928,16.89,25.9899,38.36,23.2778,65.2068,80.25
2005-01-04,23.78,29.1807,31.9,28.8419,20.6878,81.5659,43.6721,30.2971,40.1219,60.0,31.105,35.9357,21.5,42.7463,37.47,45.4696,32.1412,13.54,30.7226,39.119,40.0775,65.3089,34.2701,29.5643,12.7,50.2761,20.1962,16.7647,21.48,64.45,,18.15,42.62,18.81,45.9736,22.7459,48.2068,30.7151,55.8601,81.64,40.3098,55.7601,20.1907,69.5006,37.4153,57.5654,9.15,47.7529,19.29,91.0,49.5344,44.9715,34.1896,40.1,39.5321,38.4465,47.9661,64.6638,85.91509999999998,54.9818,65.1056,48.1268,41.0717,11.81,66.84,22.1137,31.9981,42.9637,18.02,27.6605,23.6861,45.2153,21.3576,44.95,100.8232,34.26,19.1391,48.9072,57.7855,45.4329,30.7167,27.0446,56.8941,43.5785,36.6309,32.105,10.8735,30.8222,,14.5776,20.6637,55.9614,30.338,41.6782,13.1,36.3628,15.403,25.4352,26.3384,23.45,41.4308,45.7506,48.2524,55.9729,56.6168,21.7998,215.2228,40.1659,10.3583,10.3832,19.7205,80.74729999999998,27.575,38.7551,41.2818,47.467,,29.0893,6.41,55.68,19.38,19.7267,43.1756,34.6333,21.075,58.197,24.21,15.13,34.551,22.4028,48.2392,11.7668,32.525,48.2457,40.337,26.6377,70.7115,41.61,21.45,16.71,46.3882,28.8625,56.2392,27.9231,40.5638,40.8998,46.4528,27.072,39.7177,16.5,13.6693,36.8031,4.62,57.32,34.1382,39.7382,22.9086,29.2049,30.4166,32.027,44.9564,14.69,50.8009,34.0289,33.1915,10.073,,32.7972,60.97,18.975,30.6841,14.7,68.7188,64.9667,42.4475,27.3635,,13.5253,33.3546,30.0751,96.8469,37.3577,40.1902,29.0801,35.0786,40.03,44.6112,52.7316,68.416,70.5304,35.9954,70.185,44.2,33.4361,79.3344,49.3303,35.1334,57.62,33.6761,17.61,46.8801,11.76,38.5761,26.6018,201.33,41.7549,20.6259,31.5999,103.2473,14.98,64.2903,19.09,122.8675,18.337,23.5233,11.1803,42.7663,25.9951,63.5774,67.6077,37.3551,59.3625,33.9251,44.9712,14.65,20.5739,23.3827,33.08,16.3741,53.402,29.36,26.2,95.8359,,41.6724,33.1725,22.8286,21.505,39.7681,13.45,38.9764,41.2681,45.2109,20.12,24.88,20.1921,40.97,25.12,23.5,61.4913,26.95,16.41,36.5229,37.2304,22.9085,43.3427,51.2159,32.0931,33.9521,12.27,26.86,45.2426,62.446,40.1871,17.0948,49.27,26.8531,43.653,54.9535,48.7,41.7672,70.6264,37.4094,56.1868,71.2643,53.066,44.1319,28.8275,5.35,22.2926,22.933,22.6479,15.987,85.2,28.7257,30.9694,35.1458,18.6136,62.0532,31.102,25.8793,30.9022,42.0942,53.4535,48.8698,57.6951,39.7385,44.5279,41.55,42.8148,48.94,36.952,31.7396,79.2855,31.87,43.983,29.1296,26.7764,16.9263,30.3733,17.4876,45.1373,26.1986,104.7578,67.1819,9.3768,12.0,38.347,32.1611,17.387,29.0183,24.9,34.9862,23.9189,42.1157,20.645,44.3389,51.8747,17.07,6.67,34.7485,17.4816,32.65,46.1055,24.4793,7.8375,27.19,22.6407,18.603,39.577,,17.19,41.7149,31.053,13.46,27.4696,32.491,26.6843,43.589,32.2089,31.4042,35.6673,32.1564,43.2,47.7214,50.8294,25.6263,40.2867,53.1847,40.8936,21.953,48.1692,31.4978,21.6527,42.0239,27.983,54.1404,40.2994,19.4109,63.5151,24.65,53.6076,53.2717,25.08,43.3875,4.37,42.6115,18.465,45.387,36.0956,24.6629,32.8461,28.2947,40.2,41.8069,42.3711,48.7804,33.226,32.1991,37.0217,22.8735,24.5189,50.0265,30.845,11.5698,23.45,26.7741,20.7202,101.07,42.7842,29.4691,26.1201,31.8687,23.1962,54.3209,32.5725,24.26,28.0458,31.0471,22.4672,59.7826,21.6437,35.5133,47.5147,70.7396,41.5,23.5515,47.8194,23.23,37.6661,33.0085,46.0483,19.4503,48.7812,26.43,36.0538,22.4794,37.1132,,14.4203,47.2583,,16.58,23.15,51.4311,10.51,3.0162,31.5422,33.0064,24.7012,9.170000000000002,55.8658,29.75,40.6516,30.499,35.9559,17.8323,14.8813,18.8838,24.0868,35.0285,56.1117,10.0,43.2628,17.1205,64.914,83.41469999999998,29.4147,45.0359,49.3737,42.8,52.8981,36.78,21.3669,52.8272,71.217,32.535,37.5607,39.9896,45.92,50.4719,16.4838,29.4486,46.0187,12.72,25.02,67.566,,56.05,38.3264,15.4068,28.9429,50.8135,31.81,,53.1382,64.1229,41.7854,,48.1254,16.6446,72.9518,29.0972,49.8198,16.97,24.6119,38.45,23.0904,64.679,79.75
2005-01-05,23.17,28.7461,32.175,28.5897,19.8619,80.2369,43.4102,29.4176,40.0177,58.3,30.05,34.4352,21.1494,42.0935,35.0,44.863,31.9524,13.15,30.1481,38.8736,39.5985,65.6534,33.9387,29.6135,12.19,49.7975,18.519,16.2789,20.32,62.9,,17.93,41.57,19.14,46.465,22.6104,47.1675,30.2027,55.4553,82.37999999999998,40.0846,54.3054,19.5683,68.5594,36.7722,56.8253,9.03,47.2247,18.97,89.5,48.4207,44.2254,34.1403,39.72,39.3338,37.357,47.5721,63.8629,84.54819999999998,54.2,64.7966,47.6405,40.884,11.42,64.91,21.8721,31.2398,42.934,16.7,27.0203,23.3913,44.2866,20.7174,44.85,100.0328,34.3,18.7825,48.4249,56.7472,45.2164,29.585,26.8237,55.2822,42.7618,36.1029,31.7049,10.8504,30.4857,,14.3093,20.634,55.3577,29.879,41.2284,12.485,35.7683,15.2544,25.0084,26.2297,21.21,41.6167,43.1891,47.2223,55.4277,56.0843,21.2058,211.7674,38.5602,10.2187,10.2521,19.1624,79.0747,26.99,37.969,40.8265,46.4721,,28.9144,6.15,54.79,18.47,19.2564,41.6782,34.1161,20.65,55.4067,23.61,14.5,33.9702,22.0266,47.9459,11.6269,32.2841,46.9099,39.4621,26.1216,67.9773,40.41,21.285,16.3,45.8691,27.8403,55.8097,27.2701,40.5354,40.3292,45.5512,26.746,39.6346,16.06,13.5329,36.724,4.45,55.535,33.7435,39.3172,22.4105,27.6416,30.3025,31.8117,43.978,14.3,49.3832,33.5346,32.5895,10.0532,,32.4471,59.06,18.8975,30.2262,14.0,67.1658,64.0282,42.0367,26.9555,,13.4517,32.3196,29.5007,95.3753,37.1681,39.5219,28.7701,34.8097,39.22,44.3111,51.8899,67.0145,69.9776,35.445,69.1782,42.91,33.1597,78.8447,48.7228,34.7015,56.65,33.1042,16.75,46.3266,11.54,37.9936,26.4933,193.45,41.232,20.2806,31.0875,102.2129,14.46,62.8682,18.8963,120.0989,18.2218,23.1699,11.2206,42.0344,25.8973,63.1484,66.9484,37.1811,58.9987,33.5499,44.6958,14.23,20.3785,23.1044,32.2,16.2392,54.0613,29.15,25.33,94.7181,,40.3917,32.7137,22.11,20.975,39.55,13.2,38.2844,40.6787,44.7901,18.68,23.93,19.8621,40.1136,24.72,23.095,61.2671,25.8,16.09,35.5769,36.8675,23.2046,43.1669,48.8005,32.1604,33.5538,12.27,26.7187,43.2181,62.234,39.6647,16.6662,47.83,26.8531,42.7061,53.5198,48.1,41.0416,67.141,35.9177,55.3232,69.9425,52.3877,44.4268,28.2307,5.52,22.0476,22.7659,21.9617,15.5774,83.09999999999998,28.701,30.6964,34.4529,18.536,61.6689,31.4352,25.1568,30.4049,41.3603,52.9395,48.459,56.9224,39.6395,44.3849,41.8,42.4233,48.54,37.0397,31.7396,78.6119,29.55,44.185,28.6927,24.6273,16.4313,30.0452,17.3485,44.3716,26.1693,104.266,66.5971,9.2651,11.55,38.1292,31.4464,17.0013,28.4713,24.345,34.5179,23.5447,41.7184,20.2766,43.8401,51.4326,16.875,6.27,34.7289,16.8441,31.11,45.5144,24.6685,7.335899999999999,25.9,22.0496,18.2443,39.342,,16.83,41.6902,30.4704,13.03,26.3184,31.7486,26.2716,42.7323,30.5179,31.0997,34.5992,31.2334,42.44,47.0566,50.1026,25.6942,40.0794,53.3391,40.3478,21.8283,47.1629,30.3073,21.3202,41.7092,27.3939,53.7099,40.1355,19.1888,62.1064,24.2325,53.1028,52.4514,24.91,42.7055,4.37,41.7884,17.545,44.9496,35.7508,24.5148,32.6694,28.3146,40.0,41.1794,41.0043,47.7679,32.8627,31.2396,35.5915,22.3107,23.8479,48.7618,30.505,11.2633,23.1,26.0012,20.2762,100.62,42.1557,28.8073,25.9369,31.43,23.3403,53.0668,31.983,23.25,27.7027,30.7851,22.3584,59.0837,21.1268,35.4152,47.2769,69.7602,40.55,23.2785,47.6328,23.0,37.4398,32.4298,45.1858,18.7645,48.8809,25.26,35.5999,22.1914,36.1678,,14.4108,46.7116,,15.56,22.45,50.7211,10.57,3.045,30.8975,32.4769,24.5032,8.74,55.5398,29.3,40.6516,29.5695,35.5714,17.7335,14.9162,18.8739,23.3998,34.2003,55.8442,9.82,42.8381,17.101,63.5555,82.2997,29.32,45.2235,48.9519,41.6,52.4243,36.87,21.4015,51.5126,70.1394,30.77,37.0436,39.7319,45.0,50.0281,16.4286,29.5104,45.6838,12.39,24.855,66.5704,,55.575,37.6544,15.2192,28.5438,50.5584,31.25,,52.8351,63.0722,41.4019,,48.0662,16.4486,73.1902,26.9518,49.3151,16.52,24.3451,36.68,22.8338,63.4699,79.55
2005-01-06,23.4,28.8123,32.3425,28.6936,19.852,80.6307,42.933,29.7749,39.9703,58.21,30.115,34.8765,20.7989,41.7525,35.58,44.2749,31.7165,13.02,30.4729,38.9718,39.5585,65.9487,32.703,29.4164,12.06,49.3677,18.9273,16.1599,20.07,62.65,,17.75,41.81,18.9,46.1898,22.0006,47.118,29.7593,54.9831,81.01,39.4484,53.0933,19.0152,65.1394,36.4799,56.2215,8.82,46.6156,18.75,90.2,49.0792,44.0122,34.6329,40.03,39.617,37.2078,47.1289,63.0027,83.4548,53.7797,63.4389,47.3329,40.736,11.25,64.88,21.2212,31.9117,42.2902,17.0,27.0299,23.1761,43.9933,20.691,45.5,101.5938,34.65,18.3988,48.1355,54.5524,45.9222,28.4929,26.5659,55.0732,41.9225,36.1316,31.2662,10.4808,30.159,,13.6237,20.2977,55.4551,29.3558,41.3624,12.78,35.2729,15.0563,25.3159,25.9496,21.28,41.8956,42.1962,47.6555,55.1408,55.7293,21.2388,214.7391,37.4557,10.0692,10.0649,18.7426,78.3345,27.185,37.9094,41.2084,48.1269,,28.9533,6.02,54.22,18.67,19.2069,41.9856,33.5193,20.585,54.8088,23.13,14.65,34.5642,22.4028,48.0689,11.723,32.0528,46.4875,37.8965,26.3002,68.4491,40.2,21.021,16.2,45.5606,27.0609,55.3102,27.1414,40.4216,39.6011,44.9877,25.9852,39.3021,16.0,13.3855,36.1007,4.38,55.85,33.2601,39.0335,22.0818,27.9304,29.4851,31.6649,43.4839,14.15,48.7783,33.2134,32.3158,9.9245,,31.4614,60.37,19.1325,30.3655,13.75,66.3893,63.3928,41.1858,27.6869,,13.2402,32.0291,30.1822,94.9975,37.1113,39.4847,28.7895,34.6603,39.73,43.6547,50.5035,66.9089,69.5906,35.1089,68.555,41.87,33.1321,78.7467,48.577,34.5863,57.33,31.7793,16.8475,47.6925,11.75,37.5735,26.0299,195.25,40.5285,20.8626,30.5751,102.4198,14.36,61.7893,18.658,118.9795,18.145,23.2082,11.1307,41.6981,25.7182,63.5189,66.6631,36.9007,58.9003,33.2613,44.4598,13.31,20.5642,22.6006,31.4,15.632,52.7624,29.75,25.77,94.6592,,40.0961,32.6844,22.2281,20.51,39.4457,13.25,37.6121,40.9561,45.3136,18.96,23.7,19.657,40.4835,24.16,22.75,61.1502,25.94,15.95,35.1235,37.0298,23.175,43.2646,48.8745,31.6986,33.447,12.34,25.6123,43.0891,61.174,39.3648,16.5964,48.0,26.5527,43.1546,51.5557,47.92,40.0873,68.2271,35.9762,55.5912,69.3165,53.705,44.1861,28.0118,5.74,22.4396,22.7855,21.3052,15.5973,84.34999999999998,28.1818,30.6269,33.9016,18.3322,61.1663,31.2,24.662,30.4049,41.1074,52.3661,48.1624,56.8148,39.1446,44.6512,42.4,42.5994,48.0,36.6498,31.5561,77.8229,28.98,43.9686,27.9283,25.0706,16.5303,30.4023,17.0799,45.097,26.1791,103.5381,67.1521,9.0465,11.57,37.6736,31.1605,16.9321,27.8447,23.535,34.0401,23.5746,41.3707,20.1661,43.1652,52.5723,16.66,6.42,35.2671,17.2127,31.7,45.3981,24.1009,7.616399999999999,26.03,21.6273,17.9553,39.5378,,16.58,41.493,29.1304,13.13,27.013,31.5173,25.8981,42.1706,30.1918,30.8142,33.4846,31.5976,42.71,46.5415,50.0347,25.6166,39.5758,52.8952,40.4138,21.6711,46.3242,30.1379,20.8312,40.2238,27.5019,53.9491,39.4342,19.013,61.265,23.9634,52.4396,50.7625,24.61,41.8061,4.45,42.1454,18.02,45.1148,35.7048,24.5049,32.4834,27.7399,39.9,40.9802,40.399,46.5568,32.3944,32.0507,36.0098,22.0219,24.0255,48.5964,29.805,11.1842,22.4,25.3579,20.1282,96.99,41.4789,29.0345,25.5803,31.4793,22.8889,53.0964,31.4696,23.5,27.4576,30.7196,21.9926,56.2879,21.0679,35.3171,47.2769,69.256,39.53,22.9129,47.4756,22.5,36.9053,32.6162,45.0037,18.6353,49.0306,24.16,35.3767,22.4239,35.5473,,14.1932,45.8963,,15.46,22.5,49.5179,10.48,2.9875,30.5999,31.9863,24.6616,8.72,55.5102,29.19,40.5537,29.4509,36.004,17.4766,14.5031,18.6664,22.882,34.3746,56.0016,9.7,43.0629,16.8273,63.0704,82.0258,29.3958,45.0171,48.3192,40.89,51.3992,37.63,20.8333,51.3851,67.2438,30.5,36.9187,40.6833,45.4,50.3176,16.1824,29.5199,45.8611,11.99,24.675,66.6192,,57.425,37.0913,15.0513,28.0862,50.9364,31.12,,52.361,63.3301,40.9005,,48.1155,16.3832,72.4273,27.3275,48.7906,16.45,23.6487,36.32,22.6019,63.4027,79.0
2005-01-07,22.68,28.7367,32.5,28.7282,20.3043,80.6307,43.7844,30.6728,40.5104,57.83,29.64,34.8177,21.2663,41.6745,35.5,45.0744,31.7259,12.98,30.8475,39.3546,39.5136,66.4901,32.2821,30.1358,12.3,50.0319,18.8584,16.0509,19.91,63.25,,17.95,41.33,18.69,49.1577,22.6975,48.0089,30.6018,55.3589,81.79999999999998,39.742,54.0242,19.0942,66.4906,36.9184,56.6987,8.99,46.5642,18.93,89.73,48.9049,43.8959,34.6329,40.01,39.5981,36.1247,47.2766,62.9038,81.6877,54.0045,64.1224,47.7795,41.2296,10.94,66.23,21.6453,32.334,42.5577,17.38,27.2209,23.1574,44.2866,20.7372,47.5,102.2261,35.36,18.5077,47.3156,55.9276,46.2045,28.7411,26.6948,56.0682,42.4987,36.3333,31.3337,10.6359,30.2371,,13.6535,20.6637,56.088,29.5761,41.9175,13.5,35.0747,15.6308,25.4261,25.9925,21.56,42.221,42.8317,47.877,55.3799,55.6825,21.318,218.6881,37.227,10.0692,10.0743,18.9649,79.315,27.64,37.591,41.8056,47.1124,,29.0408,5.97,54.18,18.92,19.4445,42.5508,33.9271,20.5,55.9548,23.0,14.93,35.046,22.3929,48.9489,12.0115,32.4286,46.6643,38.6885,26.33,68.5935,40.56,20.988,16.07,45.6422,27.605,55.5899,27.2107,40.469,39.0796,45.7014,28.6529,39.6993,16.05,13.511,36.6943,4.52,53.53,33.4574,39.3355,21.9623,27.4823,29.6942,31.3223,43.8298,13.9,49.8463,33.4852,32.8134,10.3797,,31.5074,58.11,19.08,31.162,13.86,66.2437,63.5395,41.4694,28.1247,,13.3138,32.3378,30.2796,95.7532,36.9123,39.8374,29.0123,34.8993,40.01,43.6078,50.7016,67.5328,70.4659,35.6788,68.8905,42.37,33.2058,80.11799999999998,48.5527,34.9031,57.49,32.6944,16.945,47.9997,11.89,37.879,25.9806,190.64,40.8707,20.4286,30.7427,103.671,14.7,61.5735,18.9907,119.6891,18.1546,23.3896,11.2516,41.1739,26.0634,64.3965,66.8599,36.7749,59.1462,33.04,45.3647,14.42,20.4762,22.6726,32.2,15.8344,52.9002,29.39,25.43,94.62,,40.4212,32.5868,22.3659,20.42,39.3603,13.23,37.4935,41.1541,44.6336,18.56,23.26,19.6217,40.4737,23.76,22.9,61.3743,25.33,16.12,35.5276,36.9534,23.5254,43.7041,50.1561,31.5832,33.5053,12.35,26.3891,42.2257,62.1762,39.7324,16.4469,47.03,27.0954,44.1014,52.5672,48.1,40.6539,68.4147,36.1907,56.1173,70.3599,53.587,44.7998,28.3351,5.61,21.7537,22.8674,21.3848,15.7172,85.2,28.2807,30.8751,34.2208,18.3128,60.8608,31.3862,24.4443,30.9022,41.405,51.9607,48.9733,57.4604,39.8869,45.2478,42.84,42.805,48.9,36.8642,30.6674,78.4195,29.3,43.7883,27.8786,26.3266,16.6986,30.4216,17.5931,45.5,26.1498,103.184,67.7468,9.1881,11.57,39.0154,31.1605,16.9815,28.3818,23.57,34.3586,24.2083,41.6786,20.1661,43.1897,52.1989,17.05,6.38,35.7271,17.0434,31.25,45.2721,24.2804,7.4283,26.09,21.815,17.9852,39.6553,,16.6,41.9959,29.1498,13.34,27.5279,31.3244,26.0455,42.1896,29.7208,30.6048,34.144,31.7173,42.82,46.6539,50.4902,25.7524,39.6943,53.2136,40.5705,21.721,46.5371,30.8801,20.9583,40.9222,27.6492,53.8439,39.0244,19.1518,62.1348,23.8659,52.7068,51.1486,24.51,42.4189,4.49,43.0478,16.875,45.4647,35.7738,24.9788,32.6322,28.4136,41.25,40.9503,41.2972,46.13,32.4517,30.8637,35.6401,22.3605,24.0453,48.8299,30.0,11.4215,22.63,25.3329,20.513,94.76,41.7206,29.3111,26.2836,31.9673,22.9273,53.3038,31.5932,23.8,27.438,30.6915,21.9827,57.6858,21.0679,35.3858,47.8319,69.479,39.64,22.9129,47.6033,23.55,37.6035,32.8614,44.3904,18.4862,48.6315,23.49,35.3864,22.3178,35.9019,,14.1459,46.232,,15.45,22.42,47.9301,10.37,2.975,31.4926,31.9911,24.4734,8.46,55.7176,29.3,40.5243,29.8414,35.8021,17.2988,14.7718,18.8047,22.9019,33.9726,57.1027,9.68,43.9122,16.8566,63.5943,82.21169999999998,29.1779,45.2705,48.5349,40.62,51.6409,37.8,21.4657,51.699,68.3121,31.38,37.1051,40.8221,45.84,50.3369,16.3607,29.634,45.8808,12.08,24.875,67.0291,,56.985,37.282,15.3081,28.0376,51.0781,31.54,,53.2548,63.6166,41.2446,,48.352,16.3179,72.2842,27.0902,49.6021,16.36,24.0932,35.99,22.9769,63.4027,79.88
2005-01-10,22.67,28.8312,34.95,28.6441,20.1077,79.4985,44.4299,29.9673,39.9893,57.71,29.4,34.4842,21.3734,41.4212,34.6,45.0285,31.4239,12.94,31.2022,39.1779,39.4388,66.4606,32.1925,29.7613,12.16,49.7486,18.5689,15.9715,20.1,62.74,,18.28,41.94,18.67,48.4993,22.02,48.5038,30.6018,55.3685,81.26,39.1743,53.7624,18.8176,66.0712,38.9158,57.0201,8.91,46.0323,18.74,89.78,48.5466,43.3921,35.0271,39.8,39.0127,35.9172,46.2425,63.0324,80.6918,53.5061,63.3733,47.5314,41.3185,10.82,65.7,21.4234,31.8637,41.9337,17.4,27.5172,23.0264,44.1888,21.648,46.2,101.3863,34.75,18.4211,47.5664,56.3739,45.6493,28.2944,26.6488,55.5807,42.4216,36.4869,31.1505,10.6029,30.2078,,13.4647,20.5054,55.7861,29.2823,41.8218,13.69,35.1242,15.7992,24.912,25.9266,21.42,41.8119,42.5338,48.2139,55.9155,55.2621,21.4962,214.8279,36.468,9.9894,10.0274,19.0389,78.5364,27.75,37.5113,41.7322,46.6997,,28.6133,5.82,54.07,18.66,19.1574,43.1062,34.0266,20.49,56.3036,23.11,14.89,35.0988,22.6999,48.4852,12.1601,32.2889,46.5268,38.8175,26.0224,67.7752,40.14,20.988,15.95,44.9286,27.8698,55.6398,26.8644,40.6017,38.4303,45.1379,28.0996,39.5792,16.8,13.5056,37.1988,4.44,53.65,33.2502,39.3264,21.8129,27.3628,29.5136,30.5392,44.1954,13.77,49.4399,33.1639,32.9378,10.4094,,31.3692,58.65,19.17,30.8534,13.57,65.904,63.3439,41.1271,28.0749,,13.323,32.4104,29.6954,94.3711,36.609,39.4476,28.8186,34.8097,40.05,43.1389,50.0183,67.1969,70.254,35.6301,68.7659,42.49,32.9295,79.7262,48.509,34.4423,57.21,32.5323,16.77,48.4894,11.88,37.2488,25.6998,194.5,40.5,20.399,30.4963,102.735,14.7,61.0537,18.9559,117.4902,17.7898,22.9694,11.3756,40.7981,26.2231,64.1137,66.3187,36.804,58.4087,32.7802,45.3253,14.02,20.2221,22.4086,32.4,15.9308,53.0379,29.58,25.7,93.914,,40.6872,32.0987,22.5628,20.695,39.1706,13.19,36.9251,40.6985,44.5308,18.44,22.81,19.6922,40.1379,23.44,22.71,61.1307,25.52,16.0,35.8725,36.5523,23.5895,43.04,49.9343,31.1407,33.5053,12.05,26.1066,42.583,61.916,39.7324,16.4768,46.56,26.8144,43.9619,53.0288,47.75,40.1072,68.3851,35.6934,55.6905,69.3165,53.7738,44.5217,28.0268,5.83,22.0378,22.7364,21.2405,15.4675,83.54999999999998,27.8357,30.7213,34.0564,18.0896,60.7032,31.0334,24.2463,30.4944,41.1818,51.5258,49.6953,56.9224,39.3525,45.1788,42.72,42.1101,48.65,37.0884,29.6049,79.1892,28.83,44.488,27.3425,26.4153,16.5402,30.0452,17.8281,44.8955,25.9353,101.9938,67.8459,8.9546,11.36,39.6096,31.2749,16.8629,28.3967,23.64,34.0027,24.1135,41.5495,20.3042,42.5197,52.1203,16.925,6.22,35.4237,16.6848,30.29,44.9523,24.1591,7.2765,25.85,21.7399,17.0386,39.577,,16.7,41.9121,29.0333,13.32,27.2073,30.9388,25.8194,42.4562,29.1853,30.2908,34.1812,32.4807,42.97,46.4853,50.81,25.5487,39.2499,54.0531,40.4784,21.4865,46.1243,30.9349,20.8312,39.9385,27.5903,53.0691,39.3432,19.2443,62.4184,23.7082,52.0833,50.9556,24.81,42.1323,4.52,42.6511,16.91,44.8038,36.0083,24.9097,32.3625,28.156,40.7,40.8905,41.3265,45.2465,32.1936,30.7845,35.5136,22.2111,23.9762,48.3434,29.685,11.2732,21.29,25.3329,21.0162,93.6,41.2855,29.2271,26.5312,31.5236,22.7352,53.2248,31.5647,24.14,27.0557,30.6635,21.8541,57.0801,21.1661,35.3662,48.0698,68.8487,39.15,22.8836,47.5836,24.565,37.7191,33.499,44.285,18.4067,48.1826,23.8,35.2019,22.1852,35.636,,14.1932,45.9059,,15.53,22.14,48.3541,10.53,2.9375,31.1455,32.1271,24.1071,8.34,55.273,28.83,40.4557,29.5448,35.456,17.4569,14.7569,18.6269,22.6928,33.9145,56.6623,9.55,43.5625,16.6612,62.6337,81.62479999999998,28.7232,45.4581,47.8638,40.44,51.2541,37.63,21.6287,51.7481,67.4781,30.82,36.7788,41.3573,45.6,50.1921,16.2418,29.4961,45.5853,12.05,24.795,66.3166,,58.07,37.2184,15.1797,27.9694,50.8419,30.78,,53.0839,64.8202,41.048,,48.3717,16.2992,72.71339999999998,26.8826,49.3448,16.17,24.1303,36.08,22.7697,62.3759,79.25
2005-01-11,22.21,27.9715,34.13,28.9162,20.0782,80.04,44.9071,30.0589,39.7997,57.95,29.44,34.4254,21.4415,41.5381,34.35,45.3685,31.6221,13.01,31.4795,39.3154,39.7981,66.4901,31.7896,29.7613,12.05,50.1491,18.1996,15.9319,16.63,63.27,,18.89,41.4,18.47,48.7352,22.2813,48.0682,30.8679,55.6095,80.34999999999998,39.2526,54.0048,18.7682,65.2791,39.4322,56.4747,9.02,46.0409,18.7,90.74,49.4182,43.7506,34.8103,39.695,39.3338,35.9301,47.4539,61.6481,81.2483,53.0175,64.4782,47.7993,40.8248,11.01,66.11,21.3494,31.7197,42.013,17.15,28.1477,23.1761,44.9709,21.4632,46.8,100.7935,34.01,18.8395,47.3638,55.2992,45.4799,28.3242,26.6948,54.9041,41.977,36.895,31.7194,11.0385,29.5739,,13.415,20.6142,55.2993,29.2823,41.8313,14.03,35.6791,15.8487,25.2562,26.3318,21.14,41.6353,42.9905,48.4835,55.6668,55.6825,21.9714,212.0636,36.1566,10.0592,10.0181,19.113,78.63249999999998,27.975,37.4218,41.8301,46.6593,,28.5161,5.86,53.73,18.57,19.3307,43.2747,33.579,19.75,57.3799,22.62,14.77,35.409,22.685,48.7313,12.1601,32.7178,46.4286,38.5872,26.2308,67.4864,40.66,21.45,16.0,45.0172,28.7154,55.1804,26.8743,39.9952,38.3811,45.4572,27.6649,39.8009,16.25,13.6311,37.743,4.33,53.36,33.5363,39.9029,21.7631,27.1537,29.5326,30.4903,44.4227,13.88,49.4966,33.6088,33.2612,10.2907,,31.0468,58.98,19.0662,30.7638,13.62,66.234,63.862,41.5183,28.3088,,13.3782,32.4104,30.299,94.6594,36.4574,39.3362,28.7701,34.969,39.35,43.242,50.7511,67.1969,70.5949,35.7324,68.555,42.97,33.0952,80.069,49.2817,34.1735,57.04,32.0271,16.675,48.6814,11.7,36.8478,25.5812,195.62,40.8422,20.5371,30.3978,102.5084,14.57,60.6712,18.7722,120.9385,17.905,22.9025,11.3136,41.1245,26.1416,62.6998,66.2203,36.804,58.6152,32.7129,44.5384,14.05,19.8409,22.3079,32.0,15.7284,53.3134,30.57,25.68,93.816,,41.0813,31.4837,22.3659,20.45,39.218,13.15,37.1228,40.966,44.4721,18.56,23.05,19.8076,39.8417,22.96,22.815,61.2477,25.81,16.0,36.0203,36.3899,23.7968,43.0595,50.5751,31.0733,33.4567,12.1,25.9419,41.5608,62.3496,39.9162,16.8057,46.95,27.1245,44.0765,54.0108,47.8,40.6738,68.0691,35.7714,56.5243,69.8431,53.823,44.5792,28.5241,5.85,21.8517,22.5562,21.8323,15.5074,83.29999999999998,28.4834,30.6964,33.9887,18.3322,61.0481,30.7983,24.1474,31.0315,41.405,51.1105,50.4469,56.6779,39.976,45.3908,42.63,41.8361,49.06,37.4783,29.8947,80.7769,29.11,44.8703,27.3326,26.4743,16.7085,30.383,17.9193,45.1776,26.0231,103.479,68.8371,9.0663,11.33,38.9907,31.1605,16.9618,28.347,23.905,34.106,23.9987,41.6588,20.3227,43.0332,51.8747,16.85,6.13,35.2476,16.7146,31.8,45.0396,24.2174,7.2171,25.57,21.5148,17.0685,39.577,,16.75,41.774,29.1498,13.09,26.8867,30.7074,25.9669,42.5133,29.3544,30.9284,34.3855,32.3809,43.5,46.785,51.847,25.4807,39.4869,53.9566,40.5705,21.3817,46.021,31.5875,20.8312,40.0369,27.2466,53.5186,39.161,19.2999,62.2671,23.7917,52.4594,51.0038,25.19,42.2311,4.35,42.4627,17.615,45.4356,36.5049,25.0874,32.3532,28.6712,40.43,40.4423,41.717,49.4852,31.8304,30.5174,35.8931,22.2609,23.7591,48.4699,28.625,11.3226,22.17,25.7219,21.1642,91.86000000000001,41.5756,29.0938,26.764,31.3265,23.1194,53.0174,31.6598,24.0,26.9773,30.9161,21.9728,57.0614,20.9371,35.5624,48.0202,69.159,39.49,23.1225,47.6328,24.275,37.6709,32.469,44.1987,18.4067,49.2799,23.34,35.532,21.9996,37.2708,,14.5528,46.4718,,15.2,22.12,48.9163,10.54,3.0175,31.2744,32.132,24.3745,8.189999999999998,55.3126,28.9,40.5733,29.5844,35.5233,17.3383,14.6723,18.7059,22.2845,33.9,55.9701,8.75,43.7374,16.7101,62.4882,81.7715,28.5811,45.6364,47.5522,40.24,52.1341,38.02,21.7325,51.9443,67.6561,31.35,36.3966,41.2681,46.1,50.5009,16.2078,29.4961,46.5015,12.26,24.865,67.2536,,59.9,37.4182,15.5846,27.8915,50.634,31.12,,53.045,64.7151,41.4118,,48.0761,16.4953,72.0935,26.7936,49.3151,16.02,24.597,36.31,22.7055,62.4239,79.85
2005-01-12,22.21,28.0754,32.675,28.837,19.9799,79.7446,44.6706,30.1872,40.3114,57.61,29.24,34.6705,21.0813,41.5089,32.95,45.3041,31.5277,12.97,31.3471,38.8834,39.6983,65.9487,31.4403,29.6628,11.8,49.8658,18.2894,16.3582,14.95,63.77,,18.71,41.49,18.61,49.1774,22.1168,48.4741,30.7447,54.9156,81.75,39.1253,54.6061,17.81,64.1143,39.1594,55.9975,9.03,45.8179,18.85,90.31,49.3891,43.7797,34.9581,40.24,38.956,36.3841,46.6955,62.1029,80.41849999999998,52.822,64.6093,47.6108,40.7557,11.14,65.96,21.5614,31.7005,40.8046,16.92,28.1477,22.9515,45.1371,21.747,47.3,101.0312,33.9,18.681,47.4121,54.2336,45.2635,27.8774,26.6027,54.6354,41.741,36.6549,32.0327,10.791,29.9396,,13.4349,20.6043,54.6176,29.0253,41.5825,14.165,36.3132,15.9874,25.2884,26.9116,20.86,41.8677,43.06,48.2428,55.8199,55.6825,21.9516,209.7337,36.9546,9.9496,9.9619,18.7821,78.69979999999998,28.375,39.0536,42.0748,46.551,,28.1663,5.7,53.67,18.76,19.1376,43.6317,33.4696,19.36,56.483,22.85,14.45,35.673,23.2692,48.6461,12.0727,32.4913,46.5072,37.8597,26.1216,67.1494,41.39,21.7272,16.1,45.0762,28.458,55.6698,26.9336,39.9952,38.2237,45.0816,27.8822,39.6716,16.2,13.5056,37.6144,4.37,52.385,33.1614,39.8297,21.7332,27.2732,29.2284,30.3924,44.3931,13.79,49.0619,33.4605,33.4105,10.3006,,30.6875,59.7,19.145,30.4253,13.2,66.4767,63.5883,41.5183,28.1197,,13.2678,33.0152,30.815,93.85400000000001,36.3436,39.5033,28.6733,34.5109,39.12,42.8294,50.3154,68.0032,69.8118,35.3086,68.2481,42.85,33.0676,79.77509999999998,49.4573,34.0103,58.5,31.7411,16.42,49.0655,11.66,36.7619,25.6998,194.33,40.6426,20.5174,29.915,102.5577,14.53,60.7595,18.9658,118.8895,17.713,22.8357,11.2147,41.1937,26.197,62.4073,65.7873,36.5429,58.3595,32.9534,43.8774,13.9,19.5966,22.2071,31.95,15.6128,53.6775,31.18,25.75,93.1492,,40.9631,32.5087,22.868,20.35,39.0094,13.04,37.0882,40.5896,44.3498,18.2,22.9,19.4359,40.3848,22.56,22.9,61.3451,25.87,16.0,35.6754,36.2944,23.861,43.0692,50.7723,31.0926,33.1653,11.4,25.6971,43.6945,61.9063,39.8292,16.5266,47.11,26.9307,44.5998,53.1466,49.0,40.465,68.474,36.0639,56.6534,68.8494,54.0196,44.3971,28.5836,5.58,21.7929,22.376,21.4643,15.4075,83.15,28.3944,30.3242,33.7565,18.2157,60.6539,30.5925,24.3651,30.9321,41.3256,50.9622,50.3875,56.7268,39.3921,45.3415,42.35,41.4936,48.49,37.0982,29.6532,81.3831,29.3,44.2933,27.3127,26.7305,16.5303,30.161,18.0776,44.8965,26.101,102.2987,66.27,9.0465,11.2,38.9015,31.3035,17.3079,28.2375,24.205,33.9547,24.0786,42.7117,20.5345,43.0919,51.8256,16.93,6.11,35.0225,16.4357,31.76,44.6907,23.5819,7.1313,26.94,21.9839,16.939,39.4105,,17.0,41.8874,28.1594,13.26,27.1199,30.852,25.7605,43.0654,29.4148,30.7857,33.8561,32.4807,44.2,46.7288,51.6047,25.4031,39.2203,54.2846,40.5705,21.1946,46.1759,30.9449,20.5182,39.2007,27.0797,53.9027,39.161,19.2166,61.5959,23.9401,52.4594,50.7143,25.45,42.0335,4.32,42.9784,18.455,44.6678,36.2106,25.3342,32.223,28.2551,40.55,40.6216,41.1019,51.6096,31.8782,30.8142,35.6401,22.1613,23.7789,48.3045,28.695,11.026,22.35,25.2332,21.2135,93.82,41.3532,29.3802,27.1156,31.287,22.6679,52.8792,31.4506,24.35,26.9185,30.8787,21.9926,56.5768,21.3558,35.5231,48.268,68.7711,38.9,22.9372,46.8765,23.93,38.0176,32.881,44.2274,18.1085,49.1403,23.61,35.1922,21.7344,37.1772,,14.4866,46.0306,,15.2,22.045,48.5711,10.65,2.975,31.3339,32.132,24.3547,8.019999999999998,54.5815,28.95,40.5831,29.2531,35.9559,17.4865,14.7768,18.5083,22.4239,33.9872,55.9701,8.75,43.9622,16.8078,62.3232,77.6438,28.5621,45.7959,48.0555,40.25,51.9311,38.25,21.9054,52.2582,67.0939,30.63,35.427,41.387,47.2,50.6456,16.2545,29.4106,46.7035,12.01,24.85,68.7471,,60.0,37.4182,15.5352,27.9889,50.6434,30.73,,52.8855,64.4286,41.4904,,46.1058,16.5419,72.1412,26.7837,49.5328,16.17,24.7081,35.88,22.9077,62.4239,79.95
2005-01-13,22.05,27.8015,36.825,28.8419,19.9897,79.6461,44.6611,30.2147,40.501,56.25,29.605,34.8765,21.0131,41.0217,31.76,45.3225,31.6693,13.31,31.7092,39.0405,39.6583,65.6042,31.2971,29.5446,12.61,50.11,17.9899,16.3285,15.24,64.59,,18.54,42.45,18.77,48.7941,22.1652,49.4838,31.4,55.0602,82.15999999999998,38.8219,55.4885,18.0274,63.9745,39.4127,56.1923,8.99,45.6806,18.63,90.52,50.2607,43.7021,34.7512,40.83,38.7084,36.7862,46.5379,63.6948,80.5942,53.4182,64.8902,47.5016,41.4666,11.39,66.93,22.4489,31.4318,41.4484,17.01,28.1382,22.9422,45.3131,21.3972,47.3,100.1596,33.87,18.8172,47.2867,53.6417,45.1694,27.6888,26.6027,54.4264,41.8317,36.6405,32.4183,11.0715,30.4516,,13.4945,20.6241,54.5592,28.8417,42.1089,14.875,36.8086,16.0468,24.4209,27.2443,21.35,41.3657,43.4671,48.6183,56.0016,55.3556,21.879,204.4716,36.8767,9.8997,9.999300000000002,19.1871,79.2766,27.575,39.7003,42.7846,47.0829,,28.1955,5.79,53.89,18.93,19.1425,43.4334,33.3801,18.88,58.3764,22.66,14.53,35.7654,23.3088,49.7437,11.9766,32.8334,46.2321,37.6386,26.2407,67.3901,40.84,21.747,15.83,46.1293,28.936,55.9895,27.5867,39.7582,38.9025,45.4197,28.5738,39.5515,16.19,13.6147,37.9408,4.48,53.725,33.2502,39.848,21.8229,27.1438,29.0288,30.5392,44.739,13.76,49.0713,33.416,33.9688,10.35,,30.7059,59.0,19.425,31.3611,13.45,67.292,64.0575,41.5672,27.6371,,13.1851,32.8034,31.1558,94.2418,36.391,39.5404,28.8186,34.9093,39.2,42.5199,50.4639,67.3697,70.3001,35.5083,67.8071,44.0,33.0768,80.03959999999998,49.4085,34.1735,59.85,31.5484,16.455,48.7103,11.82,36.6664,25.769,195.38,40.5951,20.5864,30.7427,101.277,14.5,60.7595,19.6957,123.5871,18.2122,22.7975,11.1524,41.5893,26.5879,62.3878,65.6496,36.3591,58.8512,33.8867,44.4912,13.94,19.6063,22.9365,32.2,15.5935,53.6775,31.79,25.95,93.5316,,40.638,32.1573,22.7499,19.755,39.4077,13.01,37.3452,40.6589,44.5211,18.68,22.9,19.4999,40.9772,22.24,22.85,61.54,26.34,16.06,35.8725,36.2944,23.6882,42.8251,51.8074,30.6885,33.0779,11.17,25.4146,44.1212,62.022,39.8195,16.6462,47.9,26.8822,44.3755,54.6393,48.75,40.6042,69.2441,35.674,57.11,68.6307,54.806,44.5888,28.4592,5.67,22.0084,22.4088,21.3251,15.1977,83.70999999999998,28.2065,30.7709,33.7469,18.4389,60.2696,30.6121,24.2562,31.8073,41.405,50.6657,50.2293,56.7757,39.7286,44.9323,42.13,41.6991,48.5,36.8447,29.6339,81.45999999999998,29.22,44.5818,27.412,27.026,16.2928,29.9197,18.2934,44.4672,26.0133,100.8429,66.3096,8.9397,11.28,40.0601,31.637,17.4068,28.7498,24.24,33.7182,25.1712,42.4832,20.8752,43.2337,52.0221,17.53,6.05,35.1106,17.2027,31.48,44.1577,23.9166,7.0191,26.75,21.9557,17.1383,39.2441,,17.05,42.4347,28.0429,13.38,27.5668,30.2832,25.7998,42.8179,29.4631,30.9569,33.949,32.7801,44.26,47.0191,51.7985,25.0829,39.714,54.0338,40.1556,21.0799,46.1759,31.3833,20.2248,38.8859,26.9324,53.3237,38.988,19.1796,62.4846,24.1489,52.3406,50.7143,24.95,42.1521,4.34,42.5123,18.475,44.9593,35.8887,25.7193,31.8696,28.4532,42.3,41.5878,41.8341,52.4931,31.7348,31.8133,36.1169,22.5797,22.7922,49.0569,28.21,10.9963,22.1,25.1085,20.5229,95.2,42.0301,28.9753,27.9724,31.711,22.8985,53.7383,32.021,24.98,26.8891,30.7664,21.9431,56.3252,21.3166,35.2288,48.2383,67.2972,39.05,23.2785,46.0614,24.475,38.7687,32.5769,44.2466,18.0787,49.8785,23.51,35.3087,21.8493,37.517,,14.4014,46.0402,,15.23,21.95,49.0938,10.54,3.1225,31.4034,32.1466,24.5526,8.08,54.0579,28.9,40.6516,29.2037,36.0905,17.3778,15.1451,18.4984,22.2845,34.5829,56.5207,8.519999999999998,44.2219,16.9055,61.8186,75.2474,28.6569,45.9085,48.8656,39.9,51.9987,38.3,22.2067,52.5034,66.2693,30.03,34.9609,41.5456,48.42,50.1728,16.3819,29.0921,46.7675,12.07,25.385,68.8056,,60.95,37.2366,15.8315,28.6509,51.1254,30.34,,52.4721,63.9032,41.5789,,46.7658,16.5233,73.1044,26.3981,50.0672,16.11,25.3823,36.14,22.7643,61.9921,79.75
2005-01-14,21.75,27.9621,35.1,28.372,19.8323,78.76009999999998,43.5289,29.7932,40.1788,55.82,29.34,34.5234,21.3247,40.6417,31.96,45.4236,32.0469,13.45,32.014,38.9325,39.2691,65.1613,31.9239,29.7712,12.44,50.1687,18.0498,16.2095,15.2,64.11,,18.45,42.9,18.97,48.7646,21.9425,51.0775,31.2669,54.8192,80.34999999999998,39.2037,55.5273,18.5312,64.3006,39.1302,55.7638,8.99,45.4661,18.66,90.42,49.0018,43.4599,33.894,40.81,37.4705,37.3245,46.2622,63.8728,80.85779999999998,52.6754,62.7366,46.8169,41.3678,11.53,64.95,22.6215,31.2878,41.9535,17.0,27.9949,22.7363,44.5505,20.922,46.48,99.0503,33.62,19.3743,47.3831,54.352,44.9341,27.5299,26.8513,53.8892,42.417,36.3813,32.3027,11.055,30.1834,,13.5939,20.4559,55.2116,28.8693,42.3098,14.645,36.7393,16.1954,23.8794,27.218,20.72,41.375,42.6927,48.0406,55.5903,54.7483,21.9186,204.4617,36.8962,9.82,10.1304,19.8785,78.9209,27.65,40.2973,43.2644,47.1616,,28.244,5.65,52.9,18.88,18.8505,42.1343,33.2707,18.785,59.1138,22.37,14.2,35.376,23.1059,49.299,11.9766,33.0069,46.016,38.007,26.3896,67.727,40.27,21.7668,16.0,45.6225,29.9287,55.1903,27.7846,39.3317,38.814,45.5512,28.5541,39.6254,16.17,13.6747,38.5246,4.32,51.985,33.0134,39.9029,21.4145,27.1637,29.5136,30.4903,44.7093,13.65,48.7122,33.1145,34.1682,10.538,,31.1389,58.13,19.3875,31.8589,13.27,66.9717,64.4974,41.7628,27.1346,,12.9092,33.3744,31.3895,93.41650000000001,36.8743,39.262,28.4311,34.7599,38.78,41.8353,50.8105,66.7937,70.3461,35.6057,67.1455,42.5,33.1045,80.069,49.6475,33.9431,59.06,32.0688,16.25,48.8255,11.91,35.6447,25.8184,196.0,40.3574,20.4187,30.7919,101.5725,14.94,60.1514,20.3064,124.7565,17.809,22.5874,11.0036,41.3421,26.9104,62.5536,65.3347,36.3495,58.1137,33.6076,45.4434,13.99,19.4793,22.6486,32.2,15.8055,53.6086,32.63,25.12,92.1785,,40.3621,32.6063,22.5924,19.595,38.8007,12.85,37.5034,40.4608,44.1639,17.56,23.35,19.8044,41.1747,21.92,23.05,60.8579,26.55,15.74,35.5276,36.0843,23.6882,42.7274,52.2511,30.4192,33.1556,11.0,25.6358,43.3967,61.4341,39.4228,16.6462,47.75,26.7272,44.1264,55.2776,48.06,40.2563,69.0664,35.4887,55.9386,67.9351,54.5603,43.908,28.2402,5.57,21.7341,22.4252,21.5787,15.0678,83.81,28.3845,30.9049,34.3369,18.1963,59.3137,30.2201,24.2958,31.3697,41.3355,50.6657,49.8535,56.6388,39.3921,44.7498,41.99,41.2,47.62,37.0689,30.6191,80.6229,28.48,45.195,27.2233,26.9915,16.9263,29.3406,18.3941,45.0342,25.7403,99.1215,66.2997,8.88,11.23,40.377,31.2177,16.8727,29.1675,24.69,33.5196,25.8448,41.619,21.1698,43.0821,51.3835,17.555,6.37,34.9834,16.4357,31.75,44.2256,25.2264,7.2072,26.08,21.6649,16.8393,38.9405,,17.08,42.3164,27.8098,13.56,27.9311,29.8397,25.7703,42.7894,29.3745,31.29,33.8468,32.805,44.68,47.3843,51.2849,24.588,39.5067,53.5513,40.3954,20.9402,46.6274,31.996,20.5378,38.8564,26.6673,52.6577,38.8149,19.1981,62.286,24.4737,52.3406,51.1775,24.53,41.6085,4.2,41.947,18.71,44.3859,36.3255,26.1043,31.0606,27.9777,42.75,41.9364,41.8829,52.8107,32.2605,32.1595,35.7666,22.5099,23.4927,48.3729,27.63,10.8677,22.55,24.7545,20.0788,94.32,41.8657,28.3974,28.3637,31.6469,22.8024,53.8666,31.5837,24.9,26.7322,30.8132,21.6563,56.9496,21.1138,35.3956,48.2977,67.2487,38.55,23.4686,45.7667,24.55,38.759,32.8123,44.4958,17.9992,48.3023,24.1,35.3475,21.6107,37.714,,14.5244,46.0689,,14.98,21.84,48.5711,10.41,3.2213,31.3438,32.1369,24.5032,8.029999999999998,53.643,28.7,40.2892,29.09,36.0328,17.2889,14.4085,18.4589,22.1551,34.5732,55.9229,8.5,44.162,16.5439,59.9071,74.48449999999998,28.6379,45.505,48.2233,39.1,51.4379,37.83,23.1997,52.6898,67.0002,29.04,34.4201,41.0203,48.75,49.9123,16.2121,28.8211,45.8365,12.12,25.755,67.8393,,60.7,37.1458,15.8809,28.5925,50.6812,30.46,,52.2927,63.3301,41.0971,,48.9332,16.6446,73.2474,26.1015,50.0375,16.01,25.5824,35.86,22.5072,61.2243,77.98
2005-01-18,21.91,27.9621,34.87,28.3374,20.0585,78.71089999999998,43.8143,30.0589,40.2736,56.08,29.03,34.8177,21.4902,41.6063,30.62,45.4879,32.566,13.5,31.7717,38.9227,39.7282,65.1022,32.1925,30.195,12.54,50.2077,18.0997,16.4177,15.05,63.66,,18.6,44.24,19.0,49.4624,22.1652,52.2752,32.075,55.1758,80.84,38.9883,56.2449,19.756,64.3752,39.6466,55.569,8.949999999999998,45.0801,18.66,90.69,48.9049,43.644,33.7954,41.11,37.5276,37.1624,46.2917,64.8714,82.38079999999998,52.9197,63.5325,46.6383,42.1379,11.55,65.97,22.73,30.8944,41.8941,17.05,28.1191,22.7363,45.1665,21.1398,46.5,99.6248,33.69,19.7358,47.2674,54.6708,44.6048,27.798,26.9709,53.73,43.3069,36.6549,32.346,11.2035,29.0131,,14.0609,20.2185,55.309,29.2273,42.4725,14.645,36.4123,16.5619,23.8289,27.2213,20.23,41.3379,42.5934,47.8962,55.8581,54.8604,22.0374,204.8369,37.1735,9.82,10.2053,20.1749,78.46909999999998,27.885,40.2476,43.891,47.4276,,28.0594,5.65,53.41,18.75,19.0238,42.6996,33.2607,19.08,60.4791,22.51,14.28,35.4948,23.2692,49.7342,11.9066,33.2237,45.9964,38.0439,26.9453,68.1988,39.94,21.8658,16.12,45.7652,30.1567,54.7908,28.0122,39.0095,39.4732,46.3401,28.5244,40.0225,16.41,13.7348,38.5839,4.28,52.81,32.9838,39.6741,21.6038,27.4126,29.6942,31.2146,44.986,13.66,48.1829,33.3122,35.2896,10.5677,,31.185,61.0,19.245,32.8047,13.39,67.0202,64.517,42.0073,27.4729,,12.8357,34.4427,31.3019,92.7901,37.1492,39.2156,28.2374,34.9491,38.92,42.5293,51.7909,66.5825,70.0237,35.6691,67.1072,42.17,33.519,78.7467,49.4573,33.8663,59.57,31.8472,16.38,48.4894,11.8,35.3678,25.4625,200.89,40.8802,20.5371,31.0383,102.0651,15.2,61.2499,20.7284,127.2353,17.761,22.4059,11.0377,41.0552,27.5261,63.0704,66.0432,36.3785,58.0449,33.8578,45.4827,13.96,19.577,22.6006,32.2,16.1236,53.9629,33.02,25.23,91.8255,,40.6281,32.6356,22.5136,19.875,38.5826,12.9,37.9384,40.8322,44.8195,16.8,23.13,19.6281,42.014,21.04,22.93,60.6435,26.57,15.91,35.6261,36.0174,23.935,43.0497,54.0897,30.5057,33.1264,10.98,25.6358,44.2998,61.6269,39.3938,16.5565,48.2,26.7175,44.3008,56.5051,48.3,40.7533,69.412,35.8397,56.8321,69.7438,55.0616,44.0614,28.1208,5.56,22.1162,22.7397,21.5588,15.1377,83.56,28.8641,31.2324,34.7044,18.4389,59.8655,30.5729,24.5927,30.8326,41.7025,50.6162,50.0414,57.0202,39.7187,44.5032,41.6,40.8086,47.3,36.8545,30.4453,80.81539999999998,28.08,45.5557,27.2134,27.1393,16.9362,29.7942,18.5524,44.9532,25.3795,99.1215,65.7546,8.8304,11.15,41.0949,31.3797,17.0804,29.64,25.075,33.3399,26.229,41.5197,21.0962,43.4244,51.0887,18.13,6.37,35.4237,16.5752,31.84,44.3419,24.9354,7.0191,26.61,21.5992,16.64,38.7741,,17.23,42.3559,28.1594,13.59,28.3197,29.8686,25.6622,42.6466,29.3705,31.6897,34.144,33.9276,45.01,47.3937,50.8488,24.5104,39.7733,53.532,40.6166,20.9526,45.8211,32.7482,20.4889,39.063,26.6084,52.5998,38.9789,19.2258,62.4468,24.4505,52.8652,52.4032,24.11,41.3614,4.25,41.5305,18.86,44.1915,36.6934,26.6079,31.0327,28.1362,43.45,41.9763,42.0001,53.3865,31.9738,33.2971,35.4747,22.5299,23.621,48.8615,28.24,10.9864,22.8,24.565,19.8322,95.14,42.3008,28.8715,28.7054,32.1645,22.8792,54.1628,31.9545,24.87,26.5166,30.6822,21.6167,57.7977,21.3362,35.5624,47.8418,66.9578,38.18,23.7952,45.0792,24.6,39.6498,32.3905,44.9941,18.029,49.0306,24.48,34.7068,21.5577,36.4484,,14.7515,46.6924,,15.05,22.255,47.5948,10.5,3.1937,31.2744,32.4575,24.5725,7.91,53.5146,29.2,40.2108,29.0553,35.8405,17.2296,14.9211,18.528,22.1651,34.7767,55.5454,8.199999999999998,44.4118,16.368,59.8877,74.27899999999998,28.799,45.5988,48.1993,39.5,51.8344,37.77,24.01,53.455,67.5624,28.43,34.3455,41.0104,48.28,49.3527,16.314,28.593,46.8266,12.35,26.51,67.6148,,61.2,37.509,15.5648,28.4951,50.6529,30.36,,52.09,62.9002,43.4961,,49.1598,16.8033,73.38089999999998,26.1114,50.4235,16.28,26.2195,37.16,22.1512,60.994,78.52
2005-01-19,22.35,27.9621,35.245,28.7381,20.501,80.6307,43.8143,30.3521,41.4012,56.74,29.16,35.3865,22.6392,42.9705,32.38,45.9474,32.8492,13.84,32.009,39.3841,40.4967,66.6377,32.8194,30.5103,12.99,50.491,18.519,16.3979,15.33,64.0,,18.95,44.44,19.01,50.0226,21.9716,51.9489,31.8976,55.648,81.9,39.233,57.0207,20.7438,64.5988,39.9779,55.569,8.98,45.4661,18.78,91.3,49.9701,43.8475,34.5246,41.67,37.9752,37.4413,47.8676,65.257,82.3906,53.555,64.0007,47.3429,41.9503,11.51,67.63,22.6117,31.4318,42.7359,16.95,28.0904,22.9703,45.9388,21.7008,48.0,100.9222,33.52,20.0502,47.3831,55.3265,45.2635,28.0958,27.4312,54.2275,42.8382,37.6631,32.6979,11.418,29.3301,,14.1404,20.6735,56.867,29.2181,42.5874,14.83,36.8086,16.7006,24.0492,27.3267,20.16,41.6446,42.7919,48.2717,56.5181,55.7293,22.0176,205.8439,37.4703,9.8698,10.1772,20.165,79.7187,28.2,40.6655,44.0378,48.4126,,28.623,5.8,54.6,18.66,19.1525,43.5226,33.4994,19.5,61.4855,22.8,14.77,35.607,23.4673,50.2547,11.793,33.4068,46.4384,38.9924,27.0942,67.4864,40.32,22.5852,16.2,45.7406,30.039,54.9406,28.4673,39.6445,38.9616,46.9882,29.0678,40.549,16.43,13.8876,39.1281,4.31,53.865,33.6251,40.2507,22.0121,27.8308,29.9508,31.0678,45.8063,14.0,48.5704,33.7224,35.6934,10.637,,31.5259,61.21,19.45,32.4463,13.55,67.4084,65.8855,42.4181,28.0003,,12.946,34.9492,32.11,93.496,37.4903,39.8653,28.6152,35.5268,39.14,44.1705,51.8107,65.6609,70.641,36.2097,67.1168,41.95,33.8506,80.26489999999998,49.6524,34.3847,60.89,32.2808,16.84,49.9297,12.4,35.3391,25.9963,204.64,41.0038,20.7146,30.9397,102.7843,15.3,61.5343,20.7383,128.6146,18.145,22.6828,11.295,41.5201,27.3958,64.3575,67.647,37.0844,58.6643,34.4543,45.9076,14.2,19.968,22.6486,31.9,16.2199,54.937,33.4,24.91,93.1002,,41.1601,33.0652,22.6022,19.4025,38.4593,13.23,37.7901,40.8322,44.6189,17.468,23.38,19.7211,42.3596,21.84,23.14,61.4231,26.52,15.96,36.3456,36.3039,24.0041,43.9287,54.2228,30.3999,33.515,10.88,26.295,44.7662,61.7232,39.7518,16.8954,48.19,27.2311,44.9486,57.2514,48.2,41.31,70.0241,36.6294,57.0108,71.3934,55.5925,45.0683,28.5389,5.72,22.5376,23.3916,21.2853,14.6481,84.75,28.5032,31.689,35.3235,18.7495,61.4915,31.0628,24.9391,30.9221,41.9504,51.6246,50.526,57.5093,41.3716,45.3908,42.15,41.337,48.05,37.9169,30.8413,79.38169999999998,29.73,45.9524,27.7694,28.5431,16.5798,30.1996,18.5907,45.5202,25.555,100.5281,66.0123,9.0862,11.21,40.6988,30.684,16.8629,29.7245,24.55,34.3992,26.1691,42.5229,21.1698,43.4146,51.6782,17.985,6.25,35.6781,16.9438,33.37,45.5337,25.1537,7.2435,26.92,21.6273,16.7895,39.2343,,17.41,42.8095,28.5187,13.66,28.3489,30.4567,26.4387,43.0369,30.22,31.88,34.5527,34.5214,45.73,48.2833,51.8954,24.7433,40.2374,54.1213,40.9394,21.5114,43.0278,33.326,20.6552,39.5942,26.8048,53.4009,38.9425,19.5589,62.8249,24.4969,54.1223,52.6927,24.32,41.7567,4.45,42.1354,19.265,44.8718,37.3739,26.4104,30.7816,28.4532,43.45,41.8368,42.3027,55.1237,32.165,33.2774,36.1655,22.8785,23.5322,48.8224,29.23,11.471,22.9,24.8741,20.0098,94.0,42.4458,29.7704,28.4826,31.7997,23.3403,53.3729,32.4014,25.03,27.1538,30.8413,22.1713,58.683,21.8073,36.1118,47.931,68.3639,39.02,23.9854,45.5899,24.9,39.722,32.4985,44.8408,18.347,49.8885,25.27,35.3378,22.362,36.8227,,14.7515,46.9706,,15.0,22.01,48.1174,10.31,3.15,31.4431,32.4186,25.0279,7.97,55.362,29.2,40.5243,29.5695,36.2924,17.5556,15.1401,18.4292,22.6231,34.8735,57.0241,8.39,44.3618,16.3974,60.2662,73.7215,29.3674,46.7435,48.8944,40.06,52.6177,38.86,24.2076,53.7886,68.6401,29.55,34.7371,42.6952,47.95,51.6684,16.1357,29.1872,48.1364,12.25,26.54,68.6202,,61.75,37.7361,15.8019,28.4562,51.3049,30.78,,52.6593,62.9958,44.0467,,49.544,17.0367,75.3358,26.9419,50.9184,16.3,25.9158,38.09,22.4726,63.4987,80.4
2005-01-20,22.06,28.3305,34.825,28.4462,20.1569,80.1876,43.8143,30.1872,41.3444,56.05,28.755,34.2782,22.7171,42.7951,31.47,45.8739,32.7076,13.69,31.934,39.3252,39.823,65.9585,32.7746,30.0668,12.1,49.1137,18.0099,15.8129,15.36,63.71,,18.85,41.69,18.9,51.1036,22.02,51.1062,31.6808,55.0891,80.23999999999998,39.0568,56.051,20.7438,64.8598,40.1435,55.1697,8.9,45.123,18.51,89.59999999999998,49.4859,43.5374,34.4851,41.49,37.4896,37.0327,47.1978,65.87,81.2385,53.555,63.3733,47.4123,41.7627,11.37,66.93,22.5821,30.1355,42.2606,16.36,27.8802,22.7551,45.8508,20.8758,47.85,100.0804,33.25,20.3028,47.1227,54.9167,44.6989,27.659,27.6153,53.9489,42.4716,36.4869,31.9893,11.187,28.6767,,14.051,20.3768,56.088,28.8417,42.5874,14.7,37.205,16.6312,23.7784,26.961,18.62,41.561,40.8956,48.2524,56.5277,54.8137,21.8856,200.7101,37.3584,9.7701,10.3551,19.681,75.70059999999998,27.745,40.7749,43.705,47.7625,,28.5647,5.66,53.08,18.07,18.9643,43.0268,33.4497,19.18,60.3894,22.42,14.85,35.607,23.3542,49.8573,11.723,33.2141,46.3304,38.7253,27.3324,67.005,40.0,22.374,16.2,45.4256,30.1493,54.2713,28.1012,39.0,38.4106,46.1804,28.475,40.2719,16.12,13.8221,38.762,4.29,43.345,33.6942,39.9029,21.4643,27.7412,30.179,31.1852,45.7174,13.27,48.9674,33.1985,35.1401,10.7557,,31.5259,59.98,19.17,32.1277,13.18,66.0981,65.1915,42.2029,27.2839,,12.4587,33.8901,31.6426,92.621,37.3766,40.0231,28.1889,34.7897,38.67,43.7672,51.3948,64.5858,69.9592,36.3364,66.2059,42.27,33.4729,78.8447,49.2671,34.0295,60.04,32.6662,16.825,49.8337,11.9,34.9095,26.2434,192.58,40.538,20.6061,30.92,101.9666,15.2,61.0145,20.9518,124.7365,18.577,22.3772,11.0439,41.3519,27.0863,63.87,66.8599,36.5525,58.3989,34.0117,45.6794,14.1,19.4695,22.5286,31.4,16.085,55.0059,32.89,24.54,90.8058,,40.7858,30.8979,22.1592,19.005,37.6436,13.33,37.2958,40.7827,44.6434,16.72,22.3,19.3237,42.3102,20.88,22.925,61.2184,25.5,15.66,36.0203,36.1034,23.7425,43.6064,53.237,30.3037,33.1556,10.9,26.036,43.0891,61.6751,39.6841,16.9453,47.5,27.1342,44.5001,56.5738,48.35,41.0316,69.1355,36.4344,56.5839,70.5686,54.5111,44.8861,28.3647,5.5,22.5964,22.933,21.1262,14.3384,83.48,27.9593,31.5153,35.0333,18.371,60.7524,30.9354,24.5432,30.1961,42.2876,51.0611,50.5359,56.8051,40.7975,45.7015,41.85,41.6502,47.56,37.7317,30.6868,79.5741,28.89,45.9524,27.5808,28.6268,15.9265,30.1127,18.255,44.5644,25.1943,98.7674,65.4671,8.967,10.97,40.5503,29.2833,16.6156,29.441,24.675,34.2384,25.9695,41.7978,21.1514,43.2288,50.7449,17.845,6.1,35.228,16.2066,32.11,44.3806,25.0081,6.9036,25.75,21.5617,16.4408,38.8231,,17.25,42.1586,28.4993,13.44,28.3197,30.4181,26.2617,43.0083,29.7892,32.0228,34.3577,34.1821,45.83,47.6653,52.3315,24.1417,40.0399,54.5672,40.6259,21.4566,42.5762,33.0172,20.1548,39.5253,26.3531,52.8411,38.7785,19.4294,62.8817,24.4691,54.1025,52.8374,24.42,41.3021,4.59,38.0498,18.79,43.9389,36.9693,26.5289,30.7816,28.2848,42.9,41.4185,41.8341,54.399,32.3561,32.8421,35.9417,22.6593,23.325,45.5878,28.995,11.0655,22.6,24.4852,19.7829,93.0,42.7842,30.3136,28.2399,31.5877,23.4748,51.6942,31.945,23.35,26.9283,31.0003,22.201,58.5245,21.4147,35.7586,47.6436,68.2378,39.23,23.9123,44.1462,24.755,40.9739,31.9295,44.2658,18.3868,50.5169,24.55,34.7262,21.9024,36.6454,,14.8556,46.6444,,14.36,21.96,49.508,10.24,3.1263,31.205,32.2534,24.7803,7.679999999999999,55.2237,29.3,39.868,29.4904,35.331,17.5952,14.7469,18.2909,21.5776,34.2923,55.8914,8.22,44.8864,16.3876,59.6257,73.9171,28.9126,46.387,48.3192,39.2,52.5887,37.92,23.9605,53.8867,68.5745,27.81,33.7209,42.4177,47.45,51.0412,16.0592,28.7308,47.3635,11.6,26.425,66.8339,,61.5,37.7815,15.6043,28.1349,50.7663,30.33,,53.4626,62.2698,43.5551,,48.1845,16.99,73.9054,26.1905,50.1266,16.05,25.5157,35.4,22.5122,63.4891,80.37
2005-01-21,22.25,27.2347,35.61,28.6589,19.8815,79.5477,43.3862,30.1872,41.278,52.41,29.145,33.9938,22.5613,42.3858,31.8,45.8739,32.4244,13.8,31.6468,39.0896,39.3988,65.4664,32.4343,30.5005,12.3,48.9965,18.3792,15.8922,15.64,62.66,,18.67,41.96,18.92,50.7793,21.778,51.701,31.7301,55.1951,79.87,38.9785,55.954,20.7833,64.5709,40.6307,55.9975,8.609999999999998,44.9257,18.59,90.27,49.0502,43.8572,34.5246,40.91,37.3467,36.4749,47.4835,65.2459,81.61929999999998,53.1738,62.362,47.2833,42.3551,11.13,65.0,22.6314,29.7106,42.1021,16.68,27.756,22.8205,44.1888,20.9814,47.25,99.0405,33.41,20.4637,47.1323,54.8803,45.6399,28.0362,27.4404,54.1777,41.7382,36.4197,32.105,10.9593,28.467,,13.9715,20.7428,56.2341,29.1447,42.7788,14.595,36.8383,16.5619,23.6912,26.5756,18.97,41.4029,39.7141,48.2524,56.9581,55.3275,21.6612,191.6273,37.1735,9.9296,10.4113,19.8785,75.6237,27.345,40.8048,42.9805,46.9942,,28.3995,5.75,52.32,18.3,18.702,42.7888,33.0419,18.69,59.4726,22.36,14.72,35.6994,23.0914,49.2044,11.5569,32.9346,46.3009,38.7714,25.5559,66.1867,40.12,22.5192,16.0,45.0172,29.3405,53.642,28.22,39.0095,38.1253,46.2086,27.8229,40.3551,16.1,13.8385,39.0885,4.19,42.625,33.6745,39.9487,21.4344,27.9404,29.9413,31.0286,45.8755,13.25,50.1677,32.5115,36.1121,10.7557,,31.1481,59.05,18.8075,33.4021,13.1,64.9819,65.0546,41.6944,27.3834,,12.3759,33.8809,31.6426,90.8611,36.9407,39.791,28.0921,34.9093,38.9,43.1295,50.6125,63.5682,71.636,36.0928,65.1032,41.5,33.8045,78.8447,49.2866,34.3655,59.42,32.3193,16.76,50.2177,11.67,34.537,26.0951,194.44,40.4619,20.6949,30.8609,101.9177,14.79,60.426,20.8426,123.0774,18.5963,22.3008,10.9386,40.6992,27.2492,63.2361,65.9251,36.5332,57.3762,33.954,45.4434,14.15,19.4793,22.447,31.57,16.0561,55.3011,32.8,24.25,91.1882,,41.0123,29.5702,22.2281,19.505,37.4634,13.25,37.0733,40.3618,43.6404,17.08,22.24,19.2756,41.5203,20.72,22.65,60.7701,25.38,15.29,32.2754,35.578,23.9843,43.2646,52.3497,30.7943,33.3693,10.9,26.0219,43.6151,61.9063,39.8969,16.9054,47.03,26.7466,44.226,54.5509,48.2,40.1072,67.8322,36.7561,55.7897,70.2109,54.0786,44.1381,27.9565,5.58,22.616,22.5071,20.6537,14.0586,85.04999999999998,27.3462,31.3813,35.2558,18.3225,60.0626,30.8179,24.7412,30.7729,42.4463,50.6953,51.5248,56.6192,39.9364,45.6127,41.8,41.6013,47.65,37.9754,30.3873,79.6222,29.33,45.4475,27.4716,28.7647,15.6989,29.6881,18.2118,44.4186,25.3015,98.7576,64.5255,8.7931,10.95,40.9018,28.4923,16.7145,29.8389,24.64,34.2384,26.4435,41.619,21.1791,42.4464,50.6958,18.015,6.11,34.5038,16.1369,32.11,43.3632,24.7656,7.0719,25.6,21.5804,16.6699,38.5587,,17.23,41.917,28.5478,13.35,28.0768,29.9746,26.2027,42.1325,29.1289,32.0704,33.9954,34.1022,45.92,47.3188,51.9051,24.2581,39.4178,54.6932,40.4968,20.8678,42.2988,32.4294,20.2137,39.1909,26.4219,52.8411,38.7694,19.5404,63.2504,24.4876,53.4789,52.6444,24.05,40.9661,4.34,37.4945,18.81,43.7542,36.8175,27.5458,30.6514,28.5919,43.75,40.243,41.7853,54.3295,31.7826,32.2881,35.9125,22.5597,23.2855,45.4021,28.435,11.0556,22.47,24.4054,19.7927,92.13,43.5094,30.0914,28.5519,32.0807,23.6765,51.1807,31.4316,24.33,26.8597,30.7851,22.3594,58.1984,21.0287,35.6409,47.3066,69.479,38.15,24.3754,43.8221,24.58,40.1216,31.39,44.1029,18.7247,50.0581,24.13,34.7068,21.7875,36.4829,,14.7893,46.6636,,14.15,21.62,49.5869,10.25,3.0512,31.572,32.1174,24.8002,7.67,55.0261,29.79,39.7211,28.7291,35.0522,17.3877,14.9012,18.3304,21.2888,34.0308,56.1746,8.25,43.2827,16.2312,59.1212,73.6041,28.7232,46.0586,48.2952,39.0,51.9311,38.26,24.0198,53.8572,68.3964,28.11,34.3083,42.7646,47.61,51.3114,15.9403,28.7166,47.2897,11.64,26.93,66.5411,,60.125,38.2084,15.6735,27.8915,50.4072,30.4,,54.3439,61.3242,44.0958,,49.5637,16.962,73.1425,26.7837,50.2751,15.82,25.5602,36.08,22.5715,63.1916,81.45
2005-01-24,21.82,27.5558,35.49,28.2087,19.7734,78.36629999999998,43.7572,30.2147,40.1788,51.95,28.67,34.2096,22.2984,42.0448,30.03,45.5706,31.8581,13.86,31.8966,39.1288,38.81,65.1613,32.6403,30.8946,12.3,49.0648,18.2195,15.5849,15.6,62.66,,18.45,41.32,18.73,49.5803,21.6812,51.6514,31.735,54.7903,79.29999999999998,38.2737,56.1382,21.5933,64.9809,40.0266,55.6079,8.599999999999998,44.6512,18.46,89.98,48.7403,43.7506,34.4851,40.16,36.9944,36.0339,47.3259,65.6322,81.4533,53.0175,61.2852,47.3032,42.1478,11.13,64.95,23.0258,29.7975,42.2902,16.51,27.5267,22.6615,45.1176,20.0706,47.09,98.4363,33.15,20.5182,47.1709,54.9167,45.4329,27.927,27.6153,54.0583,41.5619,36.122,31.9893,11.121,28.3792,,13.9516,21.2472,55.3285,29.3191,42.9128,14.27,36.6105,16.8393,23.6315,26.4142,19.04,40.9567,39.4162,48.1766,56.6329,54.3746,21.7602,187.0859,36.3999,9.9296,10.2709,19.9378,75.2872,26.85,41.1928,43.0539,45.9008,,28.3023,5.86,51.51,18.16,18.5139,42.3327,32.6938,18.345,59.0341,21.9,14.6,35.607,22.5857,49.4882,11.6269,32.8912,45.7705,38.7438,25.7246,65.4454,40.1,22.374,16.0,44.5152,28.8257,53.1426,27.8539,37.9954,37.8694,46.1429,27.3981,40.0225,15.98,13.7402,39.415,4.17,43.125,33.2502,39.7656,21.4942,27.9005,30.0268,31.244,45.3221,13.17,50.3378,32.299,35.9626,10.7953,,31.1205,58.35,18.47,33.8501,13.03,63.8657,65.299,41.4107,27.0749,,12.0633,34.5163,31.1071,91.0798,36.8459,39.9488,27.7337,34.72,38.62,43.3733,49.9589,63.837,73.7091,36.3753,64.3841,40.79,33.7124,78.64879999999998,49.0183,33.8088,59.15,32.0399,16.84,49.8817,11.46,34.3365,26.194,188.69,40.2528,20.6752,31.7773,102.0461,14.51,59.7787,20.9518,122.9375,18.7787,22.3199,11.0687,40.6497,27.6564,63.3824,65.7775,36.4558,57.4254,33.9925,45.404,14.1,19.4988,22.519,31.1,15.9116,55.0059,33.1,23.47,90.894,,40.6577,29.1895,22.1395,19.23,37.084,13.11,36.7026,40.1142,43.0289,16.96,22.26,19.1955,41.4413,20.16,22.475,60.2732,25.06,14.96,33.0047,35.2056,23.3724,43.2743,52.2018,31.6794,32.8447,10.6,25.9372,44.0517,61.4727,39.6163,16.7957,46.3,26.4655,44.1313,53.6278,47.3,39.9581,68.7702,36.3662,55.1445,72.5462,53.9704,43.9176,27.9963,5.49,22.518,22.4415,20.788,13.8288,85.51,27.4155,31.0686,34.8205,18.3031,59.8458,30.9452,24.6768,30.6436,41.9008,51.2588,51.149,55.7488,40.075,45.3662,41.2,41.4447,47.3,37.6732,29.943,78.4195,29.49,45.5845,27.5311,28.5677,15.5009,29.4371,18.466,44.1918,25.1163,98.9641,63.683,8.6317,10.42,41.4217,28.4447,16.3683,29.5156,25.025,34.0965,26.3986,42.4633,21.0501,42.285,50.8726,18.2,6.04,34.6017,15.8879,31.24,43.3244,25.2264,7.0356,25.4,21.3365,16.8493,38.5587,,16.93,41.4683,28.5964,13.36,28.1254,29.6854,26.1831,42.4562,28.4566,32.3083,34.0697,34.1272,45.45,47.0098,51.9439,24.0058,39.4771,53.2103,40.1741,20.7805,41.7699,32.1056,20.4099,39.5942,26.0193,51.2486,38.7785,19.4571,63.4678,24.3531,53.4096,52.5962,23.91,40.6202,4.39,37.4846,18.88,43.1322,36.3577,27.9111,30.5677,28.2056,43.75,39.1971,41.6389,53.2376,31.6297,31.9419,35.8834,22.5199,22.7231,45.0503,27.78,10.9765,22.04,24.0463,19.6842,91.08,42.5425,30.5803,28.8689,32.1398,23.7437,50.4697,31.888,23.29,26.1931,30.9442,22.4188,58.1052,20.7474,35.3563,48.0797,68.9457,37.93,24.7508,44.3427,24.7,40.3768,31.5175,44.7066,18.357,49.3298,23.53,34.6971,21.8052,36.7981,,14.6663,46.5197,,13.87,21.43,48.867,10.05,3.15,31.324,31.8163,24.7407,7.61,54.3247,30.19,39.486,28.6401,35.3791,17.4371,15.1053,18.3699,21.0498,33.5222,55.4667,8.13,44.8614,16.329,58.6166,73.9367,28.3916,46.9124,48.0699,39.04,51.0317,37.74,24.6769,53.5924,68.2652,28.05,34.0286,41.8429,47.85,51.4561,15.8257,28.5787,45.4276,11.85,26.925,66.0042,,60.2,37.9268,15.7228,28.0181,50.1048,30.03,,55.1394,60.4645,43.4076,,49.7804,16.85,71.7121,27.0408,50.4136,15.6,25.8639,35.48,22.4726,62.8365,79.75
2005-01-25,21.51,27.537,35.705,28.3967,19.7635,77.9233,43.7097,30.233,40.0461,52.8,27.895,33.5426,22.3471,42.2202,27.93,45.9566,32.0941,13.89,31.5094,39.0209,38.5555,65.5058,32.5776,30.6187,12.21,49.1137,18.2694,15.1388,15.27,62.5,,18.34,40.64,18.56,48.804,21.3715,51.8497,31.7794,54.3951,77.87999999999998,37.9311,55.954,21.4353,64.1236,40.2897,57.9452,8.65,45.1316,18.7,89.22,48.5659,43.8281,34.4851,40.16,37.042,35.768,47.0797,64.6516,80.6235,52.8611,61.0698,47.3329,42.3058,11.09,63.4,22.9864,29.7492,42.2407,16.6,27.4503,22.3995,44.0911,20.0046,46.98,98.466,32.77,20.3003,47.2674,54.3703,45.687,27.3016,27.4036,53.8394,41.1859,36.1989,32.0471,10.9824,28.2037,,13.6336,20.9901,53.9944,29.5026,43.2573,14.175,36.9771,16.8491,23.4939,26.3779,18.83,41.3472,39.3269,47.896,56.279,54.3746,21.8526,182.6432,36.3464,9.9197,10.4394,19.7551,74.3067,27.225,41.1729,43.3476,46.1954,,28.4578,5.7,51.2,17.9,18.5584,42.7095,32.7933,18.125,59.1936,22.57,14.11,34.716,22.3526,49.8951,11.6356,32.9587,44.9258,38.3109,25.6055,65.224,40.19,22.2552,16.1,44.3627,28.9728,52.9627,27.8835,38.2418,38.3417,45.4854,27.4672,39.9486,15.92,13.9094,39.4941,4.09,41.63,33.2009,39.9944,21.6336,28.259,30.3691,31.0678,45.0651,12.35,50.2338,32.2842,36.0822,10.7062,,30.6875,57.52,18.5825,33.8401,13.01,63.5746,66.4818,42.0367,27.3386,,12.0174,34.5348,30.7858,92.7205,37.0923,40.0973,27.8983,34.4511,39.56,43.6265,50.1074,62.7331,74.5383,36.5068,63.7801,39.84,33.8874,78.81529999999998,48.4086,34.2215,58.15,31.6448,16.175,49.7856,11.33,34.8617,26.3917,182.2,40.0341,20.6653,31.3536,102.8065,14.4,59.0922,21.2149,120.4088,18.3562,22.1862,11.0656,40.0464,27.474,62.0952,64.9903,36.4558,57.0616,33.8867,44.4519,13.99,19.4988,22.5286,31.0,15.9501,54.7206,32.88,23.4,90.1881,,40.3129,29.2871,21.8639,19.13,36.9892,13.16,36.3566,39.9408,42.8087,16.56,22.17,18.9071,40.7008,19.6,22.5,60.3219,24.56,15.14,32.1768,35.3297,23.022,43.4306,52.1328,32.0738,32.4561,10.65,25.6123,44.1609,62.1087,39.8098,16.9652,46.0,26.7466,44.535,53.3135,47.1,40.7235,68.0,36.1712,54.9459,74.5835,53.6853,43.63,27.5235,5.26,22.371,22.6873,20.6636,13.9087,85.26,27.1188,30.9148,34.9172,18.1672,59.6192,31.347,24.7511,30.7829,40.0413,50.8634,51.0304,56.2378,40.1245,45.1196,40.93,41.7383,46.56,37.7902,30.001,79.0449,29.6,44.9425,27.6503,26.6172,15.2336,29.1958,18.7538,44.0218,25.1163,99.2986,63.3361,8.5571,10.19,41.496,27.8729,16.1903,29.3416,24.615,34.3614,26.3687,41.927,20.9949,42.2752,50.3912,18.325,5.83,33.3198,15.8879,30.44,42.8011,25.4205,6.8277,24.75,21.3928,16.7895,39.4105,,16.99,41.493,28.2662,13.49,27.9554,29.7915,25.6327,41.0569,28.2069,32.7175,33.3917,33.8278,45.13,47.5248,51.8954,23.6856,39.3586,53.501,40.6535,20.8528,40.9635,31.3833,20.459,39.2892,25.764,51.8663,38.9607,19.6792,63.2977,24.5897,53.3997,52.3549,23.09,40.719,4.4,36.5128,18.42,42.9086,36.7164,27.9111,30.8188,28.483,43.55,38.8784,41.4924,52.1159,31.2473,31.8232,35.7569,22.6494,22.4962,45.3044,26.95,11.0062,22.0,23.9317,19.7829,86.84,41.2565,30.3877,29.171,32.7313,22.9465,50.5092,31.0893,22.79,26.1931,31.2904,22.5773,57.1267,20.8455,35.7389,47.7229,69.3335,38.47,24.9506,44.3623,23.995,40.2372,31.3311,43.3745,18.6253,48.6315,22.84,34.4932,21.6991,36.8375,,14.6096,46.7499,,13.72,20.635,48.3048,10.19,3.195,31.4926,31.4325,24.4338,7.349999999999999,51.9241,29.95,39.0354,28.9318,35.5425,17.3185,14.9012,18.2217,20.9104,33.2606,55.0577,8.029999999999998,44.0871,16.3387,57.2873,74.1225,28.4485,46.3494,47.6337,39.2,50.935,37.8,24.257,53.5629,67.703,27.44,34.3549,41.4465,47.7,51.2438,15.6049,28.4979,44.7626,11.48,26.875,64.1008,,59.585,37.3819,15.6142,28.0278,50.2654,29.73,,54.5935,59.2705,42.9553,,50.9331,16.9433,71.9982,26.8332,50.6709,15.5,25.7454,34.56,22.4973,62.4431,80.23
2005-01-26,21.91,26.46,36.34,28.1493,19.6554,78.37609999999998,43.7382,30.3246,40.3778,53.1,28.08,33.984,22.201,42.4735,29.635,45.4787,31.5277,13.75,31.0723,39.1681,37.9267,67.307,31.7448,30.8454,12.3,48.889,18.3792,15.6444,15.84,62.54,,18.05,41.18,18.76,48.745,21.1198,52.1868,31.8286,55.7541,77.47,38.4401,56.5843,21.6822,61.943,39.9291,59.26,8.59,45.1401,18.5,89.65,47.9946,44.3126,33.6969,40.15,37.1372,35.1778,47.0797,64.087,81.3948,55.0991,60.6297,47.0849,42.1083,11.0,63.33,23.2033,28.9765,41.8446,16.8,27.7273,22.4931,45.8899,20.4996,46.72,98.0203,32.25,20.0799,47.2674,52.9131,45.6587,27.3512,27.109,53.7499,42.0028,35.9348,31.7579,10.89,27.7551,,13.4746,21.2967,54.0918,29.6954,42.8266,14.325,36.2637,17.0275,23.8427,26.2659,18.851,41.2635,39.9127,48.3701,56.3364,53.2534,21.8724,185.2101,35.8111,9.9994,10.3083,19.4686,74.4702,27.4,40.7351,44.0574,46.4919,,28.244,6.84,50.72,17.8,19.2861,42.7789,32.7933,18.015,58.8946,22.5,13.9,35.607,22.6601,50.548,11.5045,33.1032,45.9473,37.5281,25.5261,65.8979,40.52,21.912,16.15,43.969,28.9296,54.0815,28.6059,38.0049,37.289,46.0395,27.9118,39.7177,15.84,13.7784,39.5436,4.2,40.35,33.0924,39.6741,21.5639,27.9702,30.3405,31.9096,44.907,12.79,50.2433,32.6944,36.0622,10.6963,,30.0334,59.43,18.3875,33.4718,13.3,65.1275,66.5209,41.6357,27.6073,,12.3989,34.2124,30.669,94.3611,37.1965,40.0973,28.5764,34.7599,39.48,43.4577,50.3055,61.8691,76.0586,36.1415,63.2527,40.25,33.4453,78.5411,49.0183,34.4999,58.73,30.7101,16.075,49.9009,11.51,34.8904,26.6882,179.27,40.1957,20.8823,31.5014,101.8979,14.61,58.8371,21.2646,121.818,18.4618,22.0621,10.8952,40.3728,27.5814,61.2079,65.561,36.3785,57.6712,33.4056,44.9712,13.99,19.2447,22.7013,30.85,15.5068,55.5963,32.8,23.63,90.5018,,40.2341,30.5855,22.1395,19.4,37.0366,13.25,36.6285,40.5103,42.8087,16.72,22.08,18.9872,40.8785,19.2,24.95,61.6277,24.725,15.1,32.3247,35.1483,23.7129,43.6162,52.0933,31.9391,31.2807,10.58,24.8119,44.6571,62.4942,39.8098,16.9453,46.06,26.7175,44.3506,54.1188,47.0,40.8925,68.3259,36.8166,55.8394,75.3785,53.6755,43.8697,27.9466,5.37,22.4396,22.1794,20.7333,14.4383,86.04,26.9754,30.7808,34.7238,18.1478,59.0181,31.2882,26.0673,30.2856,40.8099,49.4299,51.238,56.629,40.2036,44.3356,40.72,41.7383,46.7,37.3808,29.5084,79.8339,29.27,44.7982,27.9183,25.5632,15.3425,29.9197,18.9697,44.127,25.4185,99.6723,63.5343,8.731,10.35,41.4762,27.8729,16.131,28.9935,25.25,33.8601,26.3387,41.7184,21.0133,42.1237,50.5484,18.2,5.88,33.2709,16.2863,30.56,42.6558,25.9153,6.93,25.44,21.3271,16.8194,39.2147,,17.0,41.5423,28.3439,13.96,27.8097,29.6758,26.3895,41.3139,28.376,32.5271,32.5557,34.212,45.76,47.3843,51.8373,23.9961,39.5462,53.9953,40.1556,21.0075,40.7055,31.7818,20.8613,38.0006,25.9898,51.6443,38.569,19.5867,64.2431,24.3995,53.3205,51.303,21.75,41.1637,4.16,36.3541,18.56,43.1808,36.8543,27.7235,30.4747,28.7306,43.65,38.201,42.0977,52.5129,31.3238,31.9518,35.8542,22.9183,22.6442,44.9526,27.245,11.0556,22.95,24.0314,20.2269,88.76999999999998,41.8173,30.7581,28.9976,32.7806,21.8515,49.9068,31.289,21.025,26.0068,30.6167,22.5376,55.8406,21.2119,35.5624,47.1678,69.4111,37.65,24.5704,44.2543,24.375,40.4779,31.1251,44.3424,18.8639,48.8709,22.41,34.3185,21.8317,36.1924,,14.5812,46.5197,,13.83,21.3,48.8965,10.12,3.2175,31.7109,31.1848,24.5725,7.7,53.7122,29.8,38.7219,28.9713,35.5521,17.4272,14.8863,18.113,21.8464,33.3623,55.5768,7.59,43.9871,16.2019,57.8307,74.4355,28.5621,45.6551,47.8158,38.96,50.8963,37.57,24.173,53.8082,66.7659,28.46,33.5624,41.605,47.25,51.9868,16.2885,28.7593,44.4276,11.8,26.625,65.9847,,59.625,37.1094,15.5451,27.9791,50.4166,29.59,,54.9912,60.0824,42.1393,,50.4109,16.8593,71.6167,27.1594,50.9678,15.46,25.9306,34.7,22.5072,63.2971,80.5
2005-01-27,21.91,27.0552,36.08,28.7331,19.5177,75.3931,43.567,30.7369,40.7189,53.97,28.17,34.2096,22.055,42.4735,29.74,45.828,32.4244,13.68,31.2222,38.9227,38.1113,65.7518,31.8165,30.9932,12.805,49.6216,18.3693,15.9914,15.98,62.11,,18.12,41.27,18.65,49.0202,20.7133,52.623,32.075,55.8022,77.4,38.0975,57.4668,21.7415,62.3437,39.5589,58.403,8.74,45.2688,18.72,89.94,47.9752,44.1479,34.16,39.73,37.1848,36.1052,44.2234,65.137,77.3431,54.2391,62.2684,47.1345,42.5131,11.07,63.53,23.4006,28.397,42.3398,16.81,27.8133,22.9235,45.9975,21.2454,46.76,98.0996,32.1,20.1542,46.978,52.8585,45.6305,26.4577,27.2471,53.4314,40.564,35.9732,32.1532,11.0682,28.2525,,13.8423,21.2868,54.6955,29.6036,43.0659,14.575,36.5609,17.1364,23.682,26.3186,18.2,41.3193,39.9425,50.2565,55.5812,53.487,21.8856,200.4139,35.9522,10.2486,10.3926,20.4465,75.57559999999998,26.975,42.1381,44.0574,46.5313,,27.9914,6.96,50.82,17.77,18.999,42.5013,32.9027,18.415,59.4028,22.71,14.25,35.31,22.4617,50.671,11.522,33.1032,45.6723,37.3716,25.4368,64.0206,40.31,22.77,16.3,44.781,29.2699,54.5311,28.121,37.4078,36.6396,46.265,28.2972,39.9671,15.35,14.1331,40.0976,4.21,41.385,33.1516,39.9761,21.6635,27.8906,30.2265,30.7839,44.907,12.8,51.3208,32.3731,36.3613,10.5875,,29.6465,62.3,18.55,33.7904,13.23,64.3996,67.215,42.5159,27.9257,,12.3802,34.0743,30.8832,94.0827,37.8694,40.0045,28.2083,35.3475,39.57,43.6922,51.4443,62.3707,75.7085,36.4338,63.1856,41.47,33.6756,78.1101,49.8963,34.1735,58.94,30.6234,16.465,49.9297,11.13,35.2818,26.9156,188.76,40.2338,20.9711,31.8758,102.0855,15.06,59.4354,21.2199,122.9375,18.3754,21.871,10.9417,40.0761,27.7281,61.4419,66.8107,36.0013,57.8482,34.3004,44.6958,14.1,19.1372,22.9269,31.12,15.42,56.0785,33.2,23.5,89.7174,,40.4508,30.0095,22.0313,19.525,37.0082,13.2,36.3022,40.8719,42.0748,16.56,22.8,18.9552,40.6514,18.48,25.315,62.7289,24.69,14.51,32.6696,34.9763,23.4612,43.3525,52.3497,31.6024,32.1064,10.32,24.8355,45.5502,61.8196,40.3226,17.0449,45.54,26.9597,44.3008,55.5722,47.61,40.7533,68.8195,37.1891,54.8467,75.5475,55.0518,44.1957,27.9217,5.65,22.5082,22.3924,20.9421,14.3883,85.01,27.0694,31.0488,34.9172,18.2254,59.0772,31.3568,25.5329,30.017,41.1322,47.5417,50.2392,57.1669,40.3323,44.0841,41.67,41.9242,47.05,34.9927,29.8078,79.86279999999998,29.89,44.5962,27.6801,25.5385,15.8375,30.0355,18.1687,43.7383,25.3015,99.6035,63.7028,8.6441,10.59,41.7584,27.8729,15.9628,29.2869,25.5,33.6993,26.3487,41.5098,21.3256,41.6884,50.4501,18.33,5.8,33.3492,16.4656,30.59,42.5395,25.8086,7.0125,25.91,21.299,16.919,38.6174,,17.17,41.3401,28.305,13.67,27.9554,29.4154,26.2322,41.4186,28.3519,32.6128,32.8808,34.3318,45.68,48.274,51.6531,23.9185,39.8523,53.3557,40.5429,20.7805,40.5377,32.5788,21.0477,38.0498,25.9015,51.1714,38.7239,19.6884,64.2431,24.6361,53.2512,51.2451,21.75,41.4306,4.21,36.5921,18.85,43.8028,36.1416,27.5458,30.8467,28.691,43.85,38.45,42.293,54.3792,31.4672,31.9815,36.0682,22.8486,22.4962,45.0503,27.4,11.1743,22.95,23.7771,18.8455,90.03,41.2372,30.5803,29.2205,33.0518,21.7074,50.2327,31.1274,21.28,26.0951,31.0565,22.607,55.7288,21.1399,36.0529,46.9795,69.3044,37.0,24.6679,43.4096,24.275,41.2146,30.772,44.0933,18.9732,49.6291,22.66,34.1729,21.4339,36.1185,,14.7704,46.7883,,13.87,21.45,49.8039,9.95,3.175,31.4926,31.1848,24.5032,7.45,53.8406,29.56,38.2713,28.7241,35.9559,17.5754,15.1999,17.9154,22.5434,33.5415,55.4195,7.74,43.3627,16.7348,56.87,73.7508,28.7042,46.7998,48.1034,37.5,50.7706,37.2,24.6522,54.1417,65.8289,25.745,33.7955,41.4861,48.13,51.8903,16.9849,28.7451,44.4375,11.91,26.89,66.5411,,59.15,37.778,15.6932,28.0862,50.1426,29.48,,53.4236,60.2448,41.8345,,49.8494,16.7847,72.23659999999998,27.7823,50.7105,15.24,26.2862,35.38,22.4726,64.8517,80.49
2005-01-28,21.9,27.3953,36.31,28.7677,20.0585,75.1667,43.1959,31.0667,40.5199,53.85,28.27,34.1311,22.0453,42.2299,29.75,45.7636,33.1796,13.72,31.3471,38.9031,38.3758,65.112,31.9955,31.1509,12.6,48.9183,18.7287,16.3384,16.14,61.42,,18.19,42.09,18.79,48.9416,21.0908,53.664,32.1242,56.0432,76.70999999999998,38.4989,58.6208,22.1268,61.9243,40.1922,58.2861,8.65,45.3803,18.97,89.81999999999998,49.3601,44.0219,33.4999,39.66,37.0706,35.5086,44.3218,66.7812,77.67499999999998,55.0111,62.0811,47.5314,42.5526,11.25,63.4,23.8936,28.397,41.8248,16.75,27.7178,22.4088,46.7307,20.922,46.85,98.2877,32.25,20.6321,47.2577,52.9404,45.6399,26.557,27.4347,54.9737,40.3784,35.3011,32.1243,10.9065,28.2378,,13.9615,21.5935,55.4551,29.6036,44.1186,14.14,36.1151,17.3345,23.6591,26.5196,17.92,41.0497,39.9921,50.6048,56.3538,53.2721,21.7206,210.2865,36.2539,10.3882,10.5705,20.8564,74.7585,27.125,42.4366,44.0574,46.6101,,28.1955,6.8,50.75,18.27,19.2663,43.4036,32.6838,18.725,58.9942,23.26,13.84,36.234,22.7543,51.1631,11.7143,33.0647,46.183,36.9479,25.5261,64.9833,40.78,23.232,16.37,46.897,28.8778,54.7708,27.9033,37.2211,36.856,46.2556,28.6529,40.1796,15.27,14.2204,40.6318,4.24,41.565,32.9049,39.9029,21.0858,27.8308,30.3976,31.567,45.5098,12.98,50.6308,32.556,36.6753,10.7359,,29.3148,62.52,18.6278,33.9496,13.52,65.5158,67.7917,42.6626,28.1098,,12.2775,34.1756,31.6913,93.6452,38.0305,39.6982,28.2277,34.5507,40.41,43.6265,51.5928,62.0803,76.0494,36.7455,63.0418,41.8,33.7584,78.06109999999998,50.6133,34.1255,59.08,30.6137,16.755,50.6018,10.75,35.0527,26.6091,190.02,39.9961,21.5038,32.6148,103.3497,15.55,59.5335,20.9865,125.2363,18.338,21.8997,10.8828,40.3036,27.6075,61.3152,65.9644,36.098,58.2022,34.589,45.4119,14.25,18.9613,22.9365,31.3,15.42,56.0883,33.97,23.26,90.8744,,41.5246,30.3902,22.0017,19.345,37.2263,13.13,36.4653,41.5008,42.202,16.716,23.31,18.7533,40.8094,18.16,24.895,62.7387,25.06,14.32,33.1426,35.2247,23.5895,43.7236,52.325,31.7756,32.5047,10.41,24.8637,46.1952,62.6002,40.1774,17.1147,46.0,26.9888,44.5998,55.0222,48.24,41.0913,70.0834,37.1401,54.9459,75.62699999999998,56.0349,43.6491,27.8221,5.9,22.5376,22.2319,19.7933,14.2984,84.98999999999998,27.638,31.6642,35.2074,18.0896,58.6731,31.2098,26.0178,32.225,41.643,47.0079,49.4085,57.5582,40.2531,43.9361,41.7,41.8557,43.0,36.1137,30.1265,79.757,30.87,45.3248,27.7694,25.3267,15.5702,30.2382,18.6531,43.6735,25.8768,99.2494,63.6929,8.7981,10.74,44.1152,27.7777,16.5167,29.5306,25.315,32.6872,26.3936,41.9766,21.4384,42.2752,51.0887,18.545,5.73,33.4177,16.3062,31.15,42.1616,26.512,7.59,26.89,20.5671,16.7596,37.9222,,17.1,41.4782,28.5672,13.91,28.0622,29.6105,26.4485,41.3139,28.1063,32.8317,32.5465,34.5263,45.93,48.6017,51.6144,23.9185,39.5462,51.1846,40.3954,20.5984,41.3634,32.2052,21.8327,37.6366,25.9702,51.2004,39.3032,19.966,64.3093,24.7845,53.3007,51.11,21.62,42.0928,4.13,35.8583,19.28,43.7833,36.4313,27.7926,30.9799,30.4644,44.25,38.8485,42.6152,55.0939,31.4767,32.3475,36.3893,23.0976,22.3975,44.6105,26.625,11.1347,23.77,23.7621,18.7468,94.07,41.5369,31.01,28.6014,33.1602,22.1877,50.0451,31.2795,25.15,26.4186,31.253,22.498,55.4026,21.0941,36.2785,46.2064,69.382,37.5,24.7995,43.4882,25.05,41.5998,31.3311,44.0837,18.9633,48.6814,22.75,34.5029,20.7799,37.4234,,14.9029,46.8554,,14.0,21.3,49.6658,9.94,3.2375,31.2943,31.0391,24.8398,7.349999999999999,53.6628,29.85,38.3497,29.3421,36.004,17.852,15.4288,17.777,22.6729,34.3892,56.4263,7.769999999999999,44.0871,16.6563,57.5396,72.3326,28.619,46.1149,48.9759,36.6,51.2541,37.2,25.2895,54.2202,65.1261,25.86,33.5345,41.6248,48.81,51.9868,16.6622,28.707,45.1222,12.28,26.65,66.0628,,59.75,37.3692,16.4932,28.096,49.9914,29.88,,54.3985,60.2066,42.0312,,50.3026,16.9433,72.2842,28.2272,50.8392,15.54,26.6641,34.9,22.2748,64.0745,79.8
2005-01-31,21.94,27.6787,37.29,28.9409,19.616,74.635,43.0722,30.7735,40.2736,53.65,28.1,34.4254,23.0579,42.1422,29.23,45.8463,33.4628,13.99,31.6843,38.5791,38.1263,65.3089,32.2373,31.5845,12.85,48.9769,18.9184,16.1401,15.88,61.72,,18.25,42.44,18.74,49.0693,21.3424,53.3963,32.2671,56.4287,77.59999999999998,38.7632,58.2911,21.6329,62.4834,40.7379,58.4322,8.56,45.7063,19.1,88.75,48.6628,44.5258,33.3028,40.14,37.5657,35.3335,44.4794,66.5138,79.4714,55.0209,62.9988,47.6306,41.8417,11.18,63.5,22.8779,28.7833,41.696,16.77,27.9375,21.9597,46.6524,21.087,46.76,99.0207,33.0,20.5256,47.5278,52.9131,46.1104,26.4776,27.5191,55.72,40.8425,35.4979,32.7317,11.0748,28.2671,,14.0708,21.7616,55.4745,29.8331,47.8414,13.69,35.7782,17.1265,23.5076,26.0584,18.34,40.808,39.863,50.3049,56.5953,53.5337,21.4632,210.5827,36.9059,10.3683,10.4488,20.6045,74.9316,27.845,42.2873,44.5469,46.9843,,28.3801,6.84,50.85,18.15,19.5287,43.4036,32.4451,18.725,60.3894,21.94,13.8,37.29,22.8088,50.8413,11.793,33.1996,46.684,36.9387,25.7147,65.6765,41.26,23.2584,16.13,46.5525,28.9296,55.2403,28.5267,36.9619,36.7773,46.6782,29.1469,40.041,15.1,14.5424,39.7216,4.32,41.08,33.3292,40.086,21.2651,27.8209,30.5592,32.0075,46.4487,13.09,50.7537,32.6697,36.8847,10.726,,29.324,62.41,18.395,33.3822,13.65,65.2246,67.4985,43.1321,28.055,,12.3709,33.2362,32.0808,94.4208,37.7083,39.3455,28.0436,34.6105,38.37,43.4202,52.0285,62.661,76.5193,36.8381,63.3774,41.35,33.7769,78.6978,50.3499,34.5095,58.28,30.9799,16.5,50.7938,11.0,35.2246,26.1248,193.69,40.1197,21.6518,33.0582,106.0457,15.45,59.5825,19.8595,122.4377,18.3574,21.8424,10.8952,40.1552,27.3632,61.0421,65.6299,36.4075,58.5562,34.4159,45.7267,14.36,18.9808,22.9605,29.75,15.632,57.1707,33.9,23.79,91.8255,,41.4754,30.4391,22.1002,19.515,37.748,13.19,36.9399,41.9465,42.4613,17.28,23.9,18.8911,41.6585,17.68,25.2,63.2746,24.77,14.42,32.8174,35.6067,23.6142,43.8896,53.0841,31.8429,32.4076,10.5,24.8119,45.8777,63.6988,40.4096,17.1945,45.99,27.2214,44.9785,55.4936,47.43,41.1807,70.113,37.0617,53.3477,75.3785,56.3101,43.63,28.3696,5.88,22.8218,22.2777,19.1667,14.4383,84.94,27.4995,31.6642,35.7877,19.3609,58.1115,31.4548,25.8397,33.3589,41.7273,46.8596,51.9204,57.8418,39.59,44.38,42.0,41.6893,43.2,36.1624,31.4885,80.4401,30.42,45.7721,28.3452,26.0064,15.5999,27.0436,18.3221,44.5725,25.6916,99.3576,62.6918,8.808,10.45,43.9716,27.7491,16.665,28.9686,24.5,33.529,24.9966,41.7184,21.57,42.2997,51.0396,18.135,5.67,33.6623,16.6549,31.7,42.1519,25.7358,7.6131,26.47,20.5014,16.7496,37.981,,17.1,41.493,28.5187,13.77,27.9359,29.5716,26.9792,41.9897,28.3237,33.0696,32.9272,34.7708,45.93,48.8826,52.1861,23.8894,39.6449,52.7257,40.5429,20.7431,41.5763,32.5539,22.1762,37.3809,26.1371,50.9784,39.1263,19.9845,64.5267,24.9841,53.5878,51.2933,21.98,42.6956,4.34,36.6318,19.125,43.6084,36.7624,27.2496,30.4291,30.1077,42.36,38.8584,42.8983,56.4837,31.7348,32.5453,36.3893,23.0578,23.0882,44.3369,26.98,11.0754,24.0,26.056,18.6186,94.73,41.5079,30.6544,28.433,32.7313,22.3798,49.1564,31.4696,25.17,26.4872,31.3465,22.5278,55.7008,21.2839,36.2295,46.0578,69.4305,39.6,24.741,43.4096,25.25,40.9979,31.3507,45.5308,18.8838,48.432,23.0,34.7553,20.7533,36.0447,,14.9218,48.2463,,13.95,21.5,49.3601,9.9,3.6088,31.2943,31.1605,24.7507,7.269999999999999,53.6035,29.7,39.3292,29.1789,36.2924,16.301,15.5781,17.7671,23.2205,34.3262,56.6308,7.82,44.162,16.9017,57.5396,72.5771,28.42,46.6309,48.8992,37.15,50.7706,37.38,24.998,55.2307,64.6575,26.15,33.376,42.5961,48.46,52.2955,16.556,29.0255,44.5262,11.97,26.3,65.6919,,60.6,37.5922,16.5525,28.2323,49.6606,30.14,,54.8664,60.4645,39.7207,,50.2139,16.8967,70.5677,28.9885,50.8194,15.3,26.2862,35.04,22.4232,63.7674,79.98
2005-02-01,22.01,28.0849,38.525,28.7826,19.675,75.974,42.8343,31.1491,41.3633,54.3,28.45,35.2002,23.5935,42.2884,29.16,46.0577,33.3495,14.05,31.8341,38.7853,37.777,65.2105,32.2821,32.3039,13.1,49.4849,19.3077,15.9022,15.9,61.99,,18.28,43.0,18.98,49.3838,22.0684,53.9614,32.6909,56.7757,77.84,39.8399,59.5905,23.648,62.4182,41.4102,58.3835,8.449999999999998,47.3963,19.49,89.34999999999998,49.0018,44.9231,33.4506,40.29,37.9562,35.0221,45.425,68.1482,80.643,55.3629,63.5325,47.8787,42.75,11.26,64.78,23.6865,28.8316,42.3497,16.88,27.7083,21.9878,47.5616,21.1068,47.55,100.5261,33.88,21.0357,47.5085,52.8494,46.3927,26.9839,27.5284,56.3767,41.5851,35.8868,33.4066,11.5467,28.0574,,14.3093,21.6825,55.309,29.7688,47.8032,13.675,37.0068,17.4831,23.6728,26.569,17.78,41.5517,40.4091,50.8273,57.223,54.0569,21.1002,191.0448,38.0007,10.5677,10.7484,21.1182,75.15269999999998,28.055,42.7848,45.7218,46.482,,28.4286,6.9,51.75,18.09,20.0485,42.9078,32.4252,19.1,61.0969,21.51,14.23,37.719,23.0419,51.7119,11.8017,33.4309,46.8902,36.6532,26.0025,66.928,41.77,23.364,16.0,46.9216,29.5585,54.9406,28.4475,36.5779,37.8694,46.8661,29.1963,40.5767,15.0,14.6734,40.4636,4.51,40.395,33.2009,40.0036,21.2153,28.1096,31.2245,32.3892,44.6105,13.0,51.2735,33.2331,37.2585,10.8052,,29.0753,64.25,18.62,34.1687,13.78,66.1952,68.0752,43.4255,27.866,,12.3896,33.7519,32.5676,95.4549,37.8125,39.4198,28.4602,34.6105,38.13,43.6734,52.5138,61.7416,77.30249999999998,37.33,63.0418,41.75,34.0163,78.3844,50.2962,34.5575,58.14,30.4981,16.51,50.4098,11.02,35.2532,26.2335,194.49,40.3383,21.7504,33.8957,106.3124,15.5,60.0337,20.4255,121.938,18.9371,21.9666,10.9881,40.7486,28.2916,62.105,66.6237,36.5622,59.1068,34.7141,45.8762,14.51,19.2545,23.0996,28.88,15.3333,57.5151,34.52,24.2,91.8451,,41.6921,30.6246,22.1395,19.56,37.1315,13.11,37.889,42.5656,42.5641,17.64,23.5,19.0673,42.1819,17.12,25.35,62.9628,25.11,14.84,33.2609,35.8168,23.7376,43.2646,53.8876,32.1508,32.7378,10.51,25.0002,45.8578,63.3711,40.1484,17.1745,47.01,27.5703,45.4419,55.6507,47.6,41.6876,71.4163,37.1499,53.854,77.4257,56.8312,44.5121,28.4692,6.11,23.3705,22.2548,18.1323,14.4683,83.45,28.5526,31.5401,35.5943,18.9242,58.8702,31.4058,25.7011,34.3038,41.7025,47.5714,51.9105,58.6634,39.689,44.8977,43.45,41.934,43.5,36.0942,31.5271,81.1618,31.11,46.0174,28.1566,26.9423,15.59,27.0821,18.6579,45.7227,25.594,100.774,63.3956,9.0912,10.59,44.3281,27.5871,16.4178,29.5902,25.35,33.8506,26.6181,41.1919,21.5794,42.3633,51.0986,18.475,5.76,34.5919,16.864,31.7,42.462,27.3658,7.557,26.07,20.1918,16.939,37.9418,,17.3,41.8381,28.6546,13.73,28.5043,29.7564,26.9104,42.4943,28.7867,33.4027,33.2059,35.0802,46.53,49.3977,51.7985,23.3363,40.188,51.8049,41.0316,20.9476,42.1247,33.2015,22.4706,37.5186,26.6281,51.9918,38.9399,20.2343,65.0184,25.0954,53.568,50.9556,22.36,42.6462,4.2,36.8301,19.25,44.1235,36.9693,27.9012,30.486,29.8204,42.79,39.0377,43.2986,56.2851,31.9833,33.0597,36.545,23.3267,23.6802,45.3044,27.08,11.0952,23.95,25.6322,18.3324,94.75,42.1074,31.3014,29.3443,33.5398,22.5719,49.6106,31.4791,24.535,26.5166,31.6273,22.607,55.5238,21.4082,36.4453,45.9388,69.9154,39.5,24.8141,44.0087,25.76,42.3894,31.2232,45.2337,18.7446,49.8785,23.59,33.8136,21.213,36.7341,,15.13,49.004,,14.09,21.5,50.297,9.89,3.75,30.5007,30.8982,24.8596,7.12,54.137,29.97,39.1627,29.6437,36.0521,17.4371,16.1156,17.866,23.0214,34.8784,54.4285,7.849999999999999,44.4367,16.9213,57.9665,73.2129,28.4958,47.5316,48.1274,37.85,51.9021,37.24,26.6777,55.3288,64.7512,26.04,33.4412,42.2294,48.9,53.0481,16.6877,29.2585,43.8513,12.3,27.135,66.4825,,60.795,37.6015,16.7203,28.2031,49.5189,29.88,,54.8976,59.6048,39.0324,,51.2286,16.934,71.569,28.7908,51.4429,15.88,26.6566,35.13,22.8187,65.2548,82.5
2005-02-02,22.53,27.8204,38.975,29.2625,19.9602,78.21859999999998,43.3386,31.2041,41.5718,53.63,29.85,35.1609,23.4474,42.6976,28.96,46.7745,33.5099,14.31,32.7183,37.9803,38.1013,65.8995,32.5507,32.7178,13.125,49.7779,19.3077,16.3483,16.35,62.43,,18.28,43.05,18.95,49.5312,21.9716,54.5166,32.8633,57.3443,79.87999999999998,42.2871,59.7651,22.8083,63.0892,42.8717,58.403,8.48,48.1255,19.39,89.51,49.9701,45.0103,33.2831,41.03,38.2323,35.8653,45.7992,68.4453,81.4533,56.438,63.6168,47.8291,43.0956,11.48,65.08,22.799,28.5901,42.9736,17.08,28.1,22.3153,46.9262,21.0672,45.5,100.8628,34.55,20.892,47.7497,52.8676,46.6092,27.7483,27.2001,57.9886,41.8125,36.751,33.2186,11.715,28.6962,,14.5975,21.6231,55.5037,29.9983,48.2338,13.76,34.8765,17.493,23.705,27.1949,17.29,41.8491,40.8559,51.5141,56.8657,53.8794,20.8824,189.8009,36.0058,10.9166,10.7671,20.9898,76.21009999999998,28.35,43.1629,46.3337,46.2653,,28.4967,6.87,51.82,18.22,19.8009,43.5821,32.9226,19.335,62.5319,22.04,14.06,38.94,23.503,52.2229,11.793,33.2719,46.9491,36.7822,26.3002,67.5441,41.71,23.0604,16.48,47.4383,30.3723,55.2403,28.5861,37.9315,37.407,47.8804,29.0876,40.6968,14.9,14.777,41.5519,4.65,39.26,33.2995,40.086,21.3149,28.5278,30.8728,32.5458,44.4721,13.06,50.8671,33.8163,37.8816,10.8052,,29.3424,65.4,18.9425,34.0791,13.62,65.8069,67.8406,44.1297,28.1894,,12.3055,34.2861,33.5899,94.9577,38.0495,39.5868,28.0436,34.74,38.45,44.133,52.088,63.8223,77.2564,37.8414,64.1444,42.38,34.1085,77.57139999999998,50.3596,34.7303,58.21,31.3172,16.73,51.2643,10.99,35.3582,26.2928,215.81,40.6426,21.563,34.1125,106.8062,15.99,60.7987,20.5049,121.3383,19.3718,21.9666,11.0098,40.6299,28.6173,63.4701,67.5191,36.5235,59.5297,34.9739,45.8762,14.75,19.3425,23.0852,29.7,15.4971,58.263,35.02,24.27,91.953,,41.7709,30.566,22.3069,19.425,37.6721,13.12,38.3042,42.4913,42.7598,17.84,23.5,19.1987,41.698,16.56,25.7,63.5378,24.76,14.43,33.0638,35.8168,24.1817,43.7529,55.0855,32.4202,32.7378,10.4,25.2262,46.7014,62.6966,40.1001,17.0948,47.24,27.4346,45.6064,56.1516,48.87,41.7075,70.1525,37.4146,54.2213,77.4854,57.6078,44.7614,28.4692,6.01,23.5273,22.3596,18.2914,14.5482,84.79999999999998,28.4389,31.3168,35.8748,19.3123,58.9786,31.2392,26.0178,35.4277,41.6529,46.9584,52.316,58.8785,40.0255,45.3317,43.15,42.0221,45.0,36.2209,31.7782,80.6037,29.44,46.1039,28.5438,27.0654,15.8473,26.9567,18.8258,46.2735,25.7598,102.397,63.4947,9.200500000000002,10.77,44.9222,27.6347,16.5859,29.6499,24.995,34.1722,26.4335,41.2019,21.711,42.4562,51.187,18.575,5.77,34.2201,16.5851,32.25,42.5589,27.2979,8.0091,26.51,20.4732,17.0884,37.9026,,17.71,41.493,28.8585,13.67,28.8298,29.3577,26.9792,44.5028,28.2029,33.4027,33.7539,35.1001,47.51,50.0438,52.2055,23.3363,40.8594,51.3784,41.3727,21.1971,42.2537,33.874,22.6668,37.312,26.5103,52.1172,38.6139,20.5489,65.4722,25.8192,53.7461,51.2451,22.62,42.8439,4.24,36.4533,19.93,44.2693,37.2222,28.0,30.6095,29.4737,43.9,37.2547,44.4213,57.6153,32.423,33.0894,36.6617,23.4661,23.9269,45.5194,27.48,10.9864,23.89,26.1059,18.6975,94.65,41.798,31.2075,29.6811,33.6926,22.7544,49.8871,31.6693,24.82,26.4676,31.8893,22.9436,55.9152,21.3951,36.6611,46.0379,70.5942,39.65,24.7995,44.7257,26.365,42.9479,31.2919,45.2241,18.6651,51.6143,23.42,33.6389,21.213,37.0295,,14.7704,48.9177,,14.5,21.0,49.7546,10.05,3.7188,30.7983,31.1848,25.2457,7.01,54.3345,29.91,39.2999,29.7772,36.9461,16.9036,16.6731,17.8956,23.4894,35.1641,54.4285,7.889999999999999,45.1112,16.8624,57.9277,73.71169999999998,28.799,46.9687,47.6816,37.55,51.786,37.16,28.392,55.0148,65.5946,25.86,33.7489,43.0916,49.68,53.2604,16.7131,29.1159,43.9498,12.34,27.175,67.7222,,62.1,37.6294,16.9179,28.6217,49.7362,29.6,,54.4375,59.6048,38.3442,,51.2286,16.878,72.2842,28.9589,52.7789,15.68,27.2271,36.02,22.6951,65.8402,87.4
2005-02-03,22.52,27.8487,39.55,29.2031,19.911,77.5295,43.5098,30.3704,42.4151,53.4,30.8,35.3179,23.3793,42.3371,29.565,46.315,33.5288,14.51,32.6334,38.2257,38.5754,65.5058,32.506,32.7178,12.9,49.0844,19.098,16.0211,16.7,62.23,,18.0,34.9,19.15,50.6712,22.02,54.5364,33.2328,57.2961,78.47,42.5024,59.2996,23.1639,64.1609,43.0861,58.6756,8.38,47.6108,19.72,91.49,51.2775,45.0103,33.2043,40.25,38.0323,35.5669,45.2772,69.0892,81.8146,58.07,63.3171,48.3352,43.4313,12.4,65.71,22.7546,28.5418,43.5778,15.0,27.9757,22.3153,46.8675,20.724,47.69,100.5062,34.9,21.0976,47.4506,54.0515,46.3363,27.8774,27.1064,59.5507,42.0121,35.8628,33.286,11.9328,29.2033,,14.3391,22.1276,55.0266,30.1911,48.1381,13.915,35.6692,17.8793,23.7647,26.9314,18.2,41.877,40.8559,52.7234,56.7595,54.0662,20.691,191.5286,35.4024,11.126,10.9075,21.1033,75.441,28.155,43.2823,46.5051,45.8023,,28.6035,6.99,51.34,18.04,19.6227,44.8018,33.8177,19.175,60.788,22.01,13.95,38.1216,23.9988,52.5446,11.8192,33.296,47.1161,37.2519,26.0521,67.2938,41.09,23.232,16.86,47.5515,29.6324,54.7408,28.5564,38.162,37.2791,48.134,28.7517,40.6137,14.75,14.7061,41.7102,4.77,39.065,33.2305,40.0493,20.9165,28.7967,30.8443,33.0842,44.8773,12.79,50.9143,33.6088,39.1277,11.0822,,29.2964,65.19,18.9725,34.8557,13.52,65.8555,68.3782,43.9145,28.0003,,12.2962,34.4795,33.9793,94.8782,38.0305,39.3362,27.5593,35.1483,38.6,44.3018,53.4545,62.3513,77.99349999999998,37.9437,63.2815,42.54,34.5414,78.1101,50.5791,34.7015,58.25,32.1651,16.425,51.0339,11.12,35.8739,26.5399,205.99,41.1464,21.2079,33.6494,107.0531,15.87,60.7889,20.6291,120.6886,19.8066,21.9952,10.8487,40.7486,29.1711,64.5428,67.7946,36.6009,60.2377,35.3876,46.7811,14.83,19.3034,23.0564,29.57,15.4682,58.5484,34.5,24.15,92.0412,,41.8694,30.1657,22.1395,19.08,38.0325,13.19,38.062,42.3923,42.6962,17.52,23.29,19.1474,42.5077,16.08,26.15,64.103,24.24,14.65,33.1722,35.8455,24.5963,43.4599,53.8531,32.3336,32.9321,10.66,25.7535,46.096,63.3808,40.5354,17.025,47.08,27.4637,45.7459,55.8275,48.96,41.5286,70.7844,36.9147,54.7375,76.909,57.4603,45.1834,28.4194,5.93,23.4195,22.7036,17.6549,14.5482,84.84,28.429,31.6146,35.8458,19.4094,59.1265,30.9648,26.9976,35.7261,42.1488,46.8398,51.9204,58.3797,39.9364,45.8839,42.75,41.5621,44.4,36.9812,31.2953,80.24769999999998,29.32,45.7721,28.6729,27.2132,16.0849,27.4586,19.1855,46.1277,25.7111,101.2363,63.1577,9.2527,10.81,44.3132,27.5394,15.8244,29.809,25.595,34.2195,26.9923,40.7151,21.617,42.3975,51.4817,19.135,5.74,34.0048,16.5752,31.13,42.1325,27.0456,8.0487,26.1,20.8767,16.4906,38.1083,,17.67,41.9121,28.9071,13.47,28.9755,29.241,27.0382,43.7794,28.4566,33.4502,34.1533,35.5741,48.44,49.6786,52.5738,23.4236,40.7607,51.6983,40.8933,20.9052,42.7117,33.6299,22.9121,37.8727,26.1175,51.4899,38.8468,20.5767,65.8315,25.4944,53.9243,52.6734,23.18,42.5474,4.17,35.9178,19.7,44.6094,37.4843,28.6121,30.4386,29.2062,44.51,38.3504,45.7393,58.072,32.4517,33.3367,37.4693,23.3665,24.1538,45.7441,25.205,10.9271,23.9,25.8815,18.7468,96.15,41.9527,31.331,30.0377,34.4813,22.6679,50.0747,31.3745,24.54,26.6636,31.5524,22.9238,57.1267,21.0549,36.8868,45.9785,70.3032,39.8,25.0043,44.4212,27.49,43.8386,31.9295,45.042,18.685,50.8362,22.88,33.7942,21.867,37.0837,,14.6569,48.8122,,14.37,20.23,52.2694,10.3,3.6537,30.7388,31.3694,25.6714,7.23,54.5618,28.25,39.2705,29.5992,36.5135,16.8443,16.2998,17.8165,23.1508,35.3676,54.0667,7.75,44.9613,16.8624,57.297,73.59439999999998,28.8937,47.2877,47.7583,38.57,52.2212,37.25,29.1479,55.2307,66.5691,25.6,33.5438,43.0322,50.0,53.2893,16.7683,28.8306,44.6592,12.3,27.75,64.5791,,61.48,38.1404,17.382,28.8943,50.1142,29.75,,54.6403,59.8913,38.5409,,51.2877,16.9247,72.1603,28.8402,53.2935,15.69,27.4494,35.27,22.5962,66.3392,86.0
2005-02-04,22.05,27.6409,38.935,29.0646,19.7144,77.5787,43.2529,30.7277,41.8845,52.98,31.515,34.9157,23.2916,42.9705,31.17,46.6183,33.6232,14.98,32.6834,37.941,38.2261,65.24,32.3269,32.7671,12.37,49.6216,18.4391,16.0112,16.88,61.86,,17.83,35.65,19.74,53.5704,21.7296,55.0023,33.0899,56.5347,77.69,43.3736,59.736,22.917,64.3006,43.2127,57.8284,8.46,47.4821,19.7,93.36000000000001,50.3091,44.8649,33.8447,39.75,37.9562,35.995,45.8386,69.9311,81.4436,57.64,62.7366,48.9702,43.8163,12.51,64.87,22.8237,28.4259,43.8749,15.12,27.8898,22.306,46.3298,20.262,46.2,100.1299,34.31,21.9518,46.785,54.1699,46.2516,27.3314,26.7687,55.2125,42.6061,36.4629,33.5753,12.5565,28.7352,,14.2696,22.454,54.4424,30.0167,48.1668,13.62,35.8574,17.7704,23.5214,27.0302,18.69,41.8119,41.3821,52.5783,57.0009,54.3652,21.1596,192.5159,35.1786,11.0063,11.0293,21.1577,75.2488,28.04,42.7848,46.9946,45.6645,,28.5841,7.02,51.4,17.58,19.6277,44.306,32.9723,18.73,62.2828,21.76,14.12,37.9236,24.3955,53.3016,11.8891,33.3442,47.2929,37.6202,25.8536,67.8233,41.05,23.265,16.7,47.8615,30.4241,54.4911,28.4673,37.778,36.797,47.8992,28.2083,40.8261,14.69,14.8261,40.3647,4.68,38.43,32.9049,40.1317,20.9165,30.1808,30.7017,32.9373,44.4623,12.62,51.0089,33.7274,38.5794,11.1218,,29.5267,65.11,18.75,35.8413,13.36,66.0011,69.3851,44.4525,27.856,,12.3336,34.415,33.7457,94.2617,37.9831,40.2087,27.1234,34.9392,38.5,44.4612,55.7024,62.1965,77.717,38.4552,63.7609,42.38,34.3572,78.15909999999998,50.1889,34.5767,58.65,32.5891,16.19,50.9667,11.05,35.6256,26.2928,206.47,41.7169,21.563,33.7381,107.3888,15.46,61.0047,20.7284,117.3403,19.6134,21.7564,10.92,40.9959,29.6598,64.1917,68.198,36.6589,60.0213,36.292,46.5765,14.72,19.3718,22.7685,29.07,15.4682,58.942,34.15,23.95,91.198,,41.5148,30.5269,22.0313,18.88,37.103,13.19,38.8232,42.6894,42.5298,16.88,22.75,18.9039,43.189,15.92,25.65,63.8009,23.4,14.45,33.1919,35.7595,24.8627,43.4697,55.5045,32.4298,32.9321,10.3,25.9889,46.0067,64.065,40.2548,17.1346,47.1,27.2892,45.8954,56.7506,49.4,41.6081,70.0044,36.2971,54.3106,76.4518,57.0179,45.2025,28.509,5.84,23.3803,22.6873,17.5604,14.5982,84.65,28.7652,31.8429,36.2714,19.4385,58.8801,31.1804,26.3741,35.557,42.7438,47.2056,51.693,58.1352,39.3921,46.2784,42.9,41.4349,43.95,36.7375,30.7833,80.39199999999998,28.93,46.039,27.958,27.5235,15.8671,27.42,19.5165,46.5164,25.516,101.2658,63.0685,9.4514,10.87,45.551,27.5394,15.9826,29.8588,25.605,33.9452,27.4414,40.6158,21.6076,42.4513,51.3933,19.425,5.86,33.6329,16.7844,30.83,42.2294,27.6521,8.051999999999998,25.84,20.6891,16.7696,37.7166,,17.75,41.9614,29.2761,13.305,29.5389,29.4647,27.0382,43.9793,28.211,33.3931,33.949,35.5591,48.67,50.4933,52.3315,23.2878,40.8989,51.5917,41.0131,21.02,42.6407,33.3011,22.4706,38.1678,26.1175,51.8084,38.7536,20.6969,65.6613,25.513,54.3499,52.8857,23.65,42.4486,4.35,35.8384,19.54,44.2207,37.6682,29.6093,30.486,28.8297,44.85,38.3006,46.3739,58.4591,32.423,33.7324,37.119,23.3864,24.4695,46.2914,24.8175,10.4821,24.5,26.056,18.6975,99.7,43.2676,31.0594,30.3447,34.9102,22.5623,50.1438,32.0401,24.41,26.6342,31.4682,23.0229,58.1518,20.8978,37.1811,45.9884,70.6911,39.7,24.9848,44.3427,27.075,44.8497,32.1257,45.1858,18.9931,51.2651,22.84,33.503,21.761,37.5712,,14.9975,48.6587,,14.15,20.31,51.155,10.11,3.75,30.2726,34.007,25.4635,7.22,54.4827,26.8,39.3782,29.3273,36.9173,16.6764,16.4989,18.0043,23.4197,35.3579,53.5004,7.519999999999999,44.9863,16.9213,56.8992,73.24219999999998,28.7516,47.4096,48.0316,38.56,52.3759,37.21,30.2397,55.3974,66.5316,25.29,33.6277,43.5773,49.55,52.9613,16.7386,29.0445,44.7872,11.8,28.37,63.0564,,61.58,38.382,17.3129,28.8358,50.4639,29.29,,54.5155,59.9773,38.3442,,52.4108,17.0554,72.47499999999998,28.2865,53.9071,15.42,27.0419,34.71,22.7198,66.675,86.76
2005-02-07,22.8,27.8393,39.465,29.4851,20.147,77.628,43.291,31.2224,43.3059,53.19,31.975,36.6321,23.4182,42.4833,31.9,46.5907,33.6044,15.24,32.3462,38.1865,37.4277,66.3424,32.2373,33.3091,12.1,50.9403,19.4575,16.6061,17.5,62.77,,18.07,35.82,19.7,54.0028,21.7199,54.6653,32.5677,56.766,78.61,43.9512,60.1045,22.8479,65.2325,44.1384,58.7438,8.5,47.6536,19.65,95.96,50.7643,45.2332,34.2388,40.49,38.2418,36.0209,46.3705,69.0892,83.4743,57.8355,64.1692,49.6847,43.4609,12.58,67.005,22.7546,29.0634,43.6372,15.6,28.2528,22.5024,46.5351,21.219,46.18,102.2097,34.19,21.823,46.785,54.2336,46.8256,27.649,26.9563,57.889,42.6525,37.4087,33.7536,12.2067,28.8181,,14.4485,22.8101,54.9195,30.5858,49.0951,14.0,36.5906,17.9982,23.6361,27.2377,19.25,42.4068,41.68,53.0426,57.7059,54.6735,21.1794,204.8566,36.0301,11.2556,11.1041,21.6565,75.5083,27.85,43.6306,47.1072,45.5069,,28.1566,7.3,52.0,18.0,19.5287,44.4052,33.5392,19.37,64.7741,22.11,14.45,38.214,24.7426,53.699,11.9591,33.6959,47.9313,38.0346,25.5559,66.5718,41.48,23.4432,16.96,48.6243,32.481,55.53,29.1105,37.6915,37.102,48.566,27.7637,41.2141,14.75,15.1153,40.0382,4.71,38.3,32.4017,40.4337,20.9165,30.8778,31.234,33.6519,44.7686,13.15,51.3586,33.9547,38.2055,11.3593,,29.582,68.0,19.0825,35.8512,12.92,66.6805,69.4242,44.5601,28.0849,,12.4082,34.3414,33.7846,95.64380000000001,38.2106,40.6357,27.5787,35.0985,39.18,45.0145,59.2179,62.5836,77.8829,38.8205,64.2595,41.59,34.8914,78.9818,51.179,34.6055,60.74,33.1673,16.695,50.8899,11.48,35.616,26.5696,205.26,42.2398,21.1388,33.5509,108.6529,14.37,61.9855,20.7284,117.5902,19.2269,22.0238,10.9169,41.8069,29.7445,65.8689,69.6838,36.7459,60.277,36.2728,47.6467,15.1,19.9875,22.6678,28.63,15.661,59.0896,33.33,24.49,92.5119,,41.4754,30.5562,22.5727,19.175,37.4065,13.47,39.5943,43.0856,42.8038,17.32,23.59,18.9968,42.9126,16.16,25.875,64.561,23.06,14.3,33.527,36.0079,25.0207,43.3036,57.2889,32.4971,32.9613,10.43,26.2479,48.1701,64.4697,41.2029,17.035,48.0,27.4734,46.618,58.4298,49.5,42.1051,70.8338,37.1401,54.8764,79.9996,56.6247,45.0587,29.1411,6.03,23.8703,23.2933,18.5252,14.6981,86.09999999999998,28.9828,32.5327,36.7936,19.7199,59.4714,31.7292,27.433,35.915,42.6843,47.0771,53.1863,59.0252,40.2135,46.3524,43.67,41.6502,44.48,36.8935,31.218,80.87309999999998,29.62,48.1888,28.4445,28.2771,16.0057,27.2173,19.4733,47.5289,25.6136,101.3445,63.5145,9.4489,11.08,45.0559,28.0349,15.9826,29.7394,26.175,34.2384,27.4015,41.321,21.7486,42.2997,51.7765,19.2,5.79,34.4549,17.9299,31.85,42.7818,27.6521,8.5206,27.43,21.1113,16.9888,38.1376,,18.0,42.6024,30.1014,13.57,28.9026,29.6883,27.5099,44.3601,28.988,33.6025,34.8964,36.0531,49.66,50.5683,53.3006,23.8215,40.9286,51.0004,40.8103,21.3044,43.0794,35.1692,23.1084,38.6597,26.4612,52.0304,39.1728,21.0763,66.5122,25.9212,55.6268,53.2717,23.52,43.5159,4.72,36.3343,20.305,43.6667,39.3649,29.4711,30.676,28.9387,44.85,38.7489,47.1061,59.561,32.6429,33.7225,36.7493,23.496,24.1242,46.4477,25.535,10.4035,24.7,25.9314,18.8948,103.9,43.9928,31.4495,30.1813,34.8017,22.3798,50.0648,33.1525,25.1,26.6538,31.5337,23.4685,58.5898,21.0876,38.1719,46.2263,71.5542,39.85,24.9409,44.4605,27.5,44.4887,32.3219,45.6266,18.7744,52.4422,23.46,33.969,21.7433,37.4234,,15.0543,49.4356,,14.4,20.225,50.8098,10.45,3.3837,30.4512,37.6015,25.5823,7.17,54.5321,27.9,39.7211,29.6684,37.1769,16.7949,16.1256,17.8264,24.4951,36.0844,53.7678,7.59,45.4009,17.0489,57.0738,72.4304,28.78,48.6482,48.6307,38.9,52.4629,37.6,30.0124,56.4569,66.7659,25.7,34.4481,43.6268,50.5,53.6463,16.9807,28.997,45.2503,11.63,28.28,62.9588,,61.545,38.224,17.4808,29.0598,50.7474,29.25,,54.7495,61.5439,38.826,,51.9675,17.1021,73.38089999999998,29.117,54.5504,15.45,27.2938,35.07,22.8978,67.8544,86.7
2005-02-08,23.13,27.9904,39.535,29.4505,20.206,77.17499999999998,43.1959,31.3599,43.3059,53.01,31.885,36.7302,23.2819,42.4346,32.1,46.5907,33.0946,15.1,32.2837,38.3042,36.9286,66.4901,32.2821,33.3583,11.89,50.9892,19.5972,16.616,17.2,63.3,,17.8,35.54,19.75,54.1011,21.778,53.5351,32.139,57.4888,77.97,43.5988,59.6875,23.0849,64.1609,43.0666,58.9191,8.5,47.4392,19.42,94.95,50.987,45.1072,34.4753,40.63,38.4513,36.0274,46.5576,68.8217,83.1619,58.4707,63.0269,49.7938,42.8982,12.8,67.63,22.1383,29.2856,43.5283,15.83,28.2337,22.6428,46.193,21.2256,46.77,101.6254,33.8,21.1817,46.6018,54.006,46.8632,27.6391,26.825,57.1826,42.4205,37.3559,33.9947,11.9625,28.6767,,14.4186,22.7013,55.1629,31.3936,49.4492,14.215,35.8376,17.7506,24.0079,27.3201,19.04,42.2116,41.3424,53.3812,57.3679,55.0472,20.8956,206.5349,36.5313,11.0661,10.9731,21.0391,74.76819999999998,27.975,43.7201,46.9946,45.7826,,27.8651,7.13,52.44,18.23,19.4841,44.3953,33.6487,18.955,64.6744,21.9,14.3,37.818,24.4947,53.2259,12.0203,33.8501,48.3439,37.6663,25.3773,65.869,41.51,23.331,16.97,48.5504,32.629,55.4401,29.5657,37.5571,37.7317,48.35,27.981,41.2326,14.91,14.9789,39.3259,4.51,37.975,32.5497,40.4246,20.3288,30.5492,31.12,33.9651,43.4839,13.06,51.4909,33.6829,38.3551,11.2307,,29.6741,67.08,18.965,35.224,13.25,66.9717,69.3069,44.6481,27.9754,,12.3615,33.6322,33.3465,95.5543,38.1632,41.2575,27.9371,34.9591,38.76,44.7144,59.812,62.1287,77.9013,38.4503,64.4321,41.7,34.2466,79.0406,51.0424,34.8263,60.9,33.0517,16.28,50.7458,11.86,36.1221,26.5894,196.96,42.2207,21.1487,34.8121,108.6036,14.1,62.672,20.351,116.2509,19.3718,22.4154,11.016,41.8366,29.422,65.5277,69.8708,36.4365,60.1786,36.1766,47.2139,15.08,19.8605,22.7445,29.02,15.4682,59.5422,33.88,24.36,92.4433,,41.5542,30.9955,22.5924,19.5025,36.6098,13.8,40.0392,42.9865,43.1267,17.2,23.9,18.9616,43.3964,16.32,26.1,64.7656,23.2,14.49,33.8029,36.218,24.9516,43.3134,57.0966,32.5837,32.5921,10.74,25.9513,48.1105,64.2288,41.2706,17.1745,47.85,27.735,46.319,58.2334,49.4,42.8208,72.97629999999998,37.1107,54.797,79.8009,57.2932,45.1834,29.2556,6.13,24.0074,23.0313,18.4257,14.818,84.84999999999998,29.319,32.0762,37.0451,20.1275,59.6192,32.0623,27.1559,36.0543,42.4959,46.9881,53.2258,58.9274,39.9166,46.4806,43.3,41.797,44.85,37.0397,30.9475,80.39199999999998,29.22,48.1382,28.5637,27.9274,16.1047,27.3234,19.3582,47.2049,25.5355,100.8232,62.6423,9.3147,11.29,44.6548,28.2255,15.9233,29.5952,25.58,34.333,26.9275,39.9106,21.6828,41.3461,52.0712,18.8,5.71,34.3767,17.91,31.44,42.588,27.6472,8.3556,27.44,20.9612,16.8592,37.9908,,18.05,43.0166,30.1014,13.55,29.1698,30.1843,27.5099,44.5409,29.4792,33.593,34.6456,36.4223,49.4,50.5683,53.0099,24.4619,40.9878,50.9132,40.9209,21.3543,42.9568,35.219,23.2261,38.4039,26.3924,52.8893,38.8468,20.9745,66.7486,25.8006,55.0329,53.127,23.56,44.3264,4.35,35.531,20.945,43.8319,38.6844,28.3653,30.5905,28.6117,44.08,38.9879,47.2818,58.8959,32.4039,33.0202,37.1677,23.5757,23.7493,46.0471,25.605,10.3837,25.0,25.7917,19.0922,102.28,43.49,31.2619,29.4582,34.3088,22.4278,49.739,33.2761,24.71,26.7519,31.4588,23.0724,58.6643,20.8717,38.996,46.4245,71.4766,39.6,24.4875,44.6471,27.05,44.024,32.4494,45.3487,18.5756,51.5843,22.77,33.5903,21.7344,37.645,,15.0448,49.3493,,14.6,20.5,50.6619,10.44,3.5313,30.5603,37.1595,25.5277,7.16,54.6803,28.85,39.5056,29.3569,37.5903,16.6961,15.7324,17.7671,24.5947,35.9875,54.3026,8.0,44.8364,16.8624,57.035,71.6479,29.1305,48.8827,47.8158,39.2,52.3662,37.79,28.8218,56.3098,66.541,25.31,34.3549,42.943,50.5,53.7139,16.9764,29.4676,45.4375,11.62,27.505,61.8753,,60.65,38.0103,16.987,29.1571,50.3694,29.35,,54.2425,61.4674,39.1996,,52.4601,16.8873,74.0866,29.4829,54.2832,15.4,27.1308,34.64,22.9028,67.0496,84.75
2005-02-09,23.79,28.2171,40.52,29.6335,20.3437,76.7911,43.1483,31.3232,43.3722,52.95,31.98,37.2206,23.2332,42.4833,31.69,46.4253,32.9814,15.2,32.2163,37.676,35.9305,67.5236,32.3269,33.2598,11.73,51.1845,19.9366,16.7151,18.06,63.07,,18.11,36.45,19.8,54.5236,22.3104,54.3084,32.1982,57.7394,78.51999999999998,43.589,59.2996,23.6578,64.1609,43.3589,58.8801,8.519999999999998,47.2419,19.46,95.02,52.0554,45.4076,34.4851,39.74,38.337,35.9885,45.9962,68.9208,83.2107,57.855,63.1111,50.5678,43.5596,12.35,66.51,22.3109,29.5946,43.5679,15.89,28.2146,22.5118,45.9486,21.6348,45.97,102.2494,33.4,21.3922,46.6114,53.7783,46.5621,27.649,26.75,56.9637,42.4576,37.5959,34.1055,12.21,28.4134,,14.3292,22.9486,54.53,31.5588,49.8703,14.01,35.689,17.9289,24.5541,27.979,20.44,42.3325,40.9552,53.12,57.3969,55.1967,20.856,207.7197,36.7891,11.106,11.048,21.5182,74.3644,27.63,43.9589,47.2638,45.1523,,27.768,7.22,49.5,18.31,19.2713,44.2168,33.2707,18.825,65.6311,21.95,14.2,38.214,24.4947,53.4435,11.8891,33.8501,48.7957,37.8873,25.4566,65.946,41.41,23.034,17.0,48.5062,33.3393,55.48,29.437,37.6627,38.2433,47.9743,28.0601,41.3341,14.76,14.586,39.8305,4.6,39.9,32.3721,40.3605,20.0002,30.5791,31.0724,33.9651,43.5827,13.05,51.2262,33.846,38.6541,11.0822,,29.8676,65.08,18.75,35.5526,13.54,67.1173,69.3362,44.9904,27.7466,,12.2309,32.9692,33.4536,95.9321,38.3811,41.0719,27.8015,34.6902,38.61,44.6863,60.0596,60.0481,77.62489999999998,38.8254,63.4925,41.96,34.6796,79.87309999999998,51.5058,34.8647,60.71,33.7551,16.09,50.6978,12.03,35.3964,26.7871,200.76,42.3538,21.198,34.9304,110.1442,14.26,62.2307,20.2666,114.5917,20.1351,22.1958,10.9447,41.6882,29.8976,65.8007,69.8904,36.2624,60.0312,36.0707,47.088,15.03,21.7566,22.6246,28.51,15.2755,59.68,34.19,24.13,92.306,,41.2094,30.5269,23.055,19.0,35.8795,13.53,40.0639,43.4917,42.9555,17.16,24.6,18.9231,43.6235,16.24,25.925,64.6682,23.88,14.45,33.2708,35.9219,24.7542,43.4501,58.117,32.6126,32.6018,10.82,26.1066,48.7457,64.4215,41.4158,17.3041,47.73,27.6187,46.7675,58.3807,49.2,42.7413,73.9539,37.8655,55.2934,79.8009,57.6078,45.2601,29.1411,6.37,24.0074,23.0935,18.4506,14.748,84.4,29.0174,32.6022,36.6969,20.244,59.3728,31.7488,27.4627,36.5615,42.5306,47.0573,52.9588,58.947,40.1344,46.6778,42.8,41.5132,44.22,36.7765,31.0538,81.1521,28.7,47.828,28.5835,27.4693,16.1641,27.7964,19.5548,47.2211,25.594,100.8429,62.9198,9.655,11.32,45.0212,28.7496,15.9233,29.7394,25.74,33.9263,26.9225,40.0,21.5418,41.0527,51.8747,19.01,6.02,34.8659,18.7168,31.97,43.1694,27.7394,8.513999999999998,28.07,21.4303,16.7795,38.2747,,17.61,42.4545,30.519,13.41,29.4855,30.5149,27.1758,44.7123,29.5396,34.1069,34.8314,36.3974,49.11,50.8024,53.7852,24.8791,39.2104,50.3995,41.4926,21.242,43.3826,35.7969,23.1574,38.5515,26.4906,51.9918,39.0797,20.9282,67.0795,25.7218,55.4288,53.3586,23.85,44.0398,4.48,36.0169,20.755,44.6094,38.7856,28.5627,30.657,28.7009,44.55,38.6493,47.1842,60.1367,32.5282,32.6739,36.7785,23.1673,23.8085,46.477,25.795,10.4234,24.8,25.9463,18.9442,102.17,43.6061,30.5309,29.7455,34.7376,22.2357,47.2505,33.4472,24.88,26.9185,31.4401,23.1219,58.8787,20.9371,38.7507,46.3948,70.9335,39.53,24.8629,44.9417,27.04,45.0306,32.0963,45.2624,18.8539,50.9259,22.24,34.0369,21.8052,37.0752,,15.1584,49.8289,,15.05,20.795,49.2122,10.3,3.4425,30.6098,37.2809,25.2004,7.26,54.9273,28.35,39.77,29.0257,37.3115,16.3998,16.0957,17.777,25.2419,36.2782,55.0105,7.559999999999999,44.3868,16.6858,56.9574,72.4597,29.0547,49.061,48.2952,39.22,57.0468,37.5,29.2467,56.4079,66.7191,25.43,34.0286,43.2799,51.11,53.7814,16.9637,29.2585,44.871,10.7,27.825,61.4751,13.9099,60.55,37.8152,17.0265,29.4784,49.9536,28.92,,54.2971,60.9898,38.5714,,52.6965,17.0367,73.8387,29.0874,54.9067,15.33,27.7457,34.6,22.7198,67.2629,84.35
2005-02-10,23.09,27.792,39.36,29.3713,20.2158,76.2004,43.2054,31.3049,43.5902,52.47,31.38,36.534,23.0579,41.9668,30.74,46.9583,32.8964,15.11,33.2454,38.0098,36.3048,68.4587,32.9089,32.8262,11.6,51.0868,19.9267,16.4772,18.14,62.31,,17.75,36.07,19.62,54.4941,23.1331,54.9528,32.75,57.3443,76.44,42.9919,59.93,22.2749,64.9064,42.9692,58.2666,8.439999999999998,47.2247,19.44,94.0,52.6586,45.2041,34.091,39.35,38.0895,35.34,44.4302,68.1482,80.6723,57.4934,64.5625,50.1709,44.4285,11.96,65.23,22.3651,29.4111,43.0529,15.95,27.7369,22.1656,45.841,21.1332,46.73,102.0117,32.89,21.2684,46.9297,54.4249,46.2798,27.1229,26.553,56.2772,42.2348,37.5431,33.4451,12.045,28.1354,,14.2596,22.7112,54.2574,31.6415,49.7938,13.685,35.5008,18.226,23.8794,28.7597,19.81,41.6818,40.7268,52.7427,57.2134,54.8417,20.8758,201.648,35.9522,11.2157,11.0667,21.4737,73.95109999999998,27.045,43.939,47.5869,44.8961,,27.5737,7.0,49.48,17.73,19.3356,43.7309,32.9822,19.95,63.8772,21.64,14.14,38.61,24.1476,53.9356,11.8017,33.8983,48.7662,38.2188,25.2581,65.3203,41.24,22.11,16.32,48.5652,32.5846,55.0105,29.2193,37.1539,37.5349,47.3169,27.813,41.5189,14.87,14.6242,40.4636,4.53,40.005,31.8689,40.5527,20.0998,30.7185,30.8918,33.6225,42.9897,12.98,51.0845,33.5445,39.352,11.102,,30.1624,61.94,18.49,36.0902,13.36,66.7775,68.7301,44.9122,27.1446,,12.2402,33.2546,32.0321,96.3199,38.6181,40.2923,27.9952,34.8396,38.14,44.5175,59.6338,60.8707,76.10469999999998,38.7474,63.7801,41.59,34.5046,78.5998,51.4961,34.7207,59.25,34.5452,15.8,50.5538,11.76,35.2341,26.7475,191.97,41.9545,21.05,35.1767,110.4108,13.87,61.5441,20.4553,111.5433,19.5361,21.871,10.92,41.5399,30.1549,66.6978,69.4181,35.9627,59.4903,36.4652,46.427,14.5,20.7206,22.6006,29.15,15.42,59.3848,33.4,23.98,91.1392,,40.6774,30.5074,23.0747,18.81,35.5191,13.55,39.9156,42.5903,42.5445,16.8,24.51,18.8046,43.347,15.76,25.55,64.3758,23.44,14.26,32.9652,35.8741,24.4581,43.3329,56.9931,32.5645,32.3201,10.4,26.2714,47.7136,64.277,41.3771,17.1945,47.15,27.3764,46.7924,57.2318,48.8,42.3536,72.8974,37.4734,54.5786,79.2046,57.4603,45.0683,28.8325,6.26,23.7625,23.2606,17.8985,14.3284,84.87999999999998,28.4785,32.0166,36.0779,19.9431,58.7323,31.4548,27.0371,36.0443,42.0645,46.6223,52.316,58.8394,39.9364,46.6483,42.1,41.1511,43.75,36.2794,31.3919,80.2381,27.88,47.1067,28.236,27.361,15.6692,27.7964,19.881,47.2049,25.4478,99.997,62.0277,9.5383,11.34,45.0064,28.8735,15.7452,30.0627,26.27,33.983,27.3416,40.6158,21.6076,40.8767,51.3344,19.26,5.94,34.7583,18.5176,31.02,42.588,26.9001,8.2368,27.65,21.2333,16.6899,38.0887,,18.2,41.9712,30.1403,13.2,30.0198,30.2134,27.3035,44.4077,29.3141,33.8023,34.8314,36.0481,47.99,51.0365,53.3006,24.4037,38.7661,50.099,40.9025,21.0449,42.7052,35.224,22.549,39.1515,26.4415,51.654,39.1169,20.8634,66.5595,25.5547,56.3691,53.6577,23.4,43.4863,4.26,35.6004,20.335,43.4723,38.6706,29.0465,30.7995,28.4037,44.85,38.2906,46.618,59.6603,32.2605,32.3178,36.7785,22.8088,23.0882,46.3695,25.585,10.4532,24.75,25.9214,18.5298,100.99,43.461,30.0667,29.8594,34.9151,23.0522,47.0827,33.1239,24.35,26.9381,31.2155,22.7555,59.4099,20.5053,39.045,45.919,70.6135,38.8,24.7215,44.4801,26.755,44.9431,32.263,44.3041,18.8838,49.9782,21.23,34.1631,21.5488,36.1441,,15.2246,49.8289,,14.98,20.935,49.2417,10.33,3.6175,30.1338,36.8195,25.0814,7.16,53.9591,27.54,40.1325,29.1246,36.5808,16.2318,16.0012,17.6683,24.6942,35.9633,53.3273,7.74,44.0871,16.6858,57.1903,72.72379999999998,28.7042,49.0234,48.1706,37.5,56.0314,37.45,29.2418,55.9958,66.8128,24.74,33.6556,42.9529,50.15,53.4051,16.9637,29.0683,46.9596,10.94,28.13,60.5185,13.722,60.2,37.8431,16.9771,29.0111,49.5756,28.3,,53.915,60.2161,38.2747,,51.0808,16.8407,72.23659999999998,29.1467,55.1046,15.11,28.3014,33.72,22.6061,66.3224,84.2
2005-02-11,22.98,27.8959,39.93,29.4356,19.852,76.0724,42.958,31.5522,43.6471,53.38,31.47,35.9946,23.2332,41.3335,29.51,46.9123,32.6982,15.4,33.5701,38.0981,36.3248,71.264,33.0791,32.5995,11.1,51.1357,19.8268,16.4772,17.75,62.81,,17.6,35.57,19.64,53.7178,23.3363,56.4696,33.7994,57.7491,73.81,42.8646,60.6476,22.6898,65.0555,42.8717,58.3056,8.34,47.2762,19.33,94.5,52.2986,45.4754,33.6969,38.71,38.0895,35.2621,45.1787,67.752,81.12139999999998,57.513,65.2835,50.2602,45.5935,11.91,65.99,22.9272,29.3435,43.4787,15.78,28.1382,22.306,45.8312,20.8428,46.45,102.2593,32.72,21.4665,46.5921,54.5524,46.1104,26.557,26.4967,56.4165,42.8382,37.5671,33.3825,12.0615,27.8526,,14.0907,22.6519,52.9817,31.669,49.7172,13.675,35.1738,18.6222,23.4847,28.7136,19.411,41.8026,40.3892,52.3364,57.3679,54.4213,20.9616,203.6028,36.0058,11.2655,11.1884,21.3849,74.4029,27.055,44.8544,48.3897,45.2901,,27.5445,7.13,47.96,17.57,19.4049,43.8003,32.8728,21.685,61.934,21.5,14.05,38.7618,24.3559,54.4087,11.6181,34.091,49.385,38.5688,25.2482,65.7535,39.76,22.44,16.3,48.9737,31.7781,54.6509,28.9324,36.9619,37.2496,48.3688,28.1786,41.3341,15.3,14.6461,41.5816,4.49,40.4,32.3129,40.8181,19.7213,30.6886,30.9679,33.4268,42.545,12.95,51.5098,33.4753,39.8753,11.2504,,30.2913,62.55,18.49,36.6378,13.06,67.457,67.8504,44.296,26.9107,,12.2215,34.3321,32.3144,96.1807,38.8455,40.0324,27.9564,34.5507,37.89,44.7331,59.2575,59.2449,77.0629,38.4795,60.7886,41.26,34.5874,78.63899999999998,51.7741,34.5575,58.31,35.2198,15.615,50.5538,11.78,35.0718,26.8365,186.66,42.0211,21.2177,35.4723,111.3786,13.76,62.0835,20.8773,113.3423,19.6907,21.9379,10.8456,41.7772,30.8716,65.7909,70.4021,35.7693,59.7165,36.8212,46.3168,14.48,20.7694,22.5862,28.72,15.4393,59.8768,32.99,23.68,90.894,,41.4261,30.4781,22.868,19.46,35.2915,13.65,39.7724,43.4917,43.1463,16.8,24.55,18.6667,43.6531,15.12,25.525,64.3076,22.97,14.7,33.0244,35.6258,24.5222,43.6552,55.0115,32.6799,32.4464,10.28,26.2479,47.922,64.6432,40.9514,17.2543,47.35,27.1245,47.0166,55.3856,48.83,42.1946,72.96649999999998,37.3068,54.2411,79.1549,58.64,47.1107,29.3651,6.18,23.5861,23.4899,18.003,14.4483,83.5,28.2708,31.7139,36.0295,19.8849,58.4366,31.2588,27.2153,35.8056,42.2826,46.4345,52.4248,58.8688,39.0258,46.3524,41.95,40.9652,43.58,36.4548,31.3629,80.8057,27.1,48.0084,27.412,27.5629,15.7187,27.7481,20.375,47.5451,25.3795,100.2429,61.2546,9.501,11.27,45.9768,28.7591,15.7551,30.5451,26.95,33.5385,27.8605,41.5992,21.57,41.0576,51.7765,19.825,5.87,35.0225,18.5774,30.89,43.0531,27.4289,8.332499999999998,27.99,21.0175,16.7795,38.0495,,18.15,42.134,30.4316,13.11,30.9671,30.1843,27.392,44.7408,29.3906,33.9261,35.0636,36.1628,47.34,50.8024,53.3006,24.5492,38.9636,50.1087,40.5705,21.1747,42.4795,33.6249,22.4215,38.8564,26.5103,51.2969,39.2194,20.9837,66.9849,25.2392,56.864,53.4744,23.1,43.8619,4.13,35.055,20.285,43.657,39.1672,29.6192,30.771,28.5028,46.05,38.0018,47.5454,59.3128,31.3333,32.209,36.9439,22.9083,23.0191,46.6334,24.84,10.3241,24.85,25.8067,18.737,100.12,44.0025,30.447,30.6964,36.1031,22.9849,46.7667,33.238,24.45,27.193,31.3559,23.2506,60.1088,20.4791,39.2609,45.9587,70.3032,39.52,24.9604,44.2935,27.3,46.0518,32.1257,44.7545,18.7645,50.2476,20.97,33.833,21.3013,35.0414,,15.0921,50.0111,,14.81,20.76,48.5021,10.09,3.5687,30.1536,36.3191,24.9921,7.21,52.4575,27.8,40.2108,29.4509,37.3499,16.2516,16.474,17.8857,24.8735,35.8519,52.9498,7.75,44.0121,16.6661,57.7627,73.1444,28.5905,49.2955,49.0142,37.55,57.6367,37.06,30.3138,55.8781,67.375,24.57,33.7955,43.0223,49.21,53.4534,17.2057,28.7831,47.2995,10.75,28.7,60.7137,13.7936,60.85,37.4436,17.5796,28.9819,49.2448,29.08,,54.1801,59.9391,38.4527,,52.1448,16.8127,71.6167,28.6029,55.7578,15.15,28.5977,33.45,22.8187,66.6327,85.15
2005-02-14,23.54,28.321,41.365,29.8314,20.265,77.2046,43.8619,31.8363,44.5757,53.6,31.92,37.2794,23.7103,41.9961,29.64,47.2891,32.651,15.5,33.4377,38.157,36.6043,70.7226,33.2134,33.4569,11.26,51.712,20.5057,16.9927,18.1,63.39,,17.72,35.65,19.74,53.7866,23.9655,57.2131,33.9325,58.2599,76.73,44.049,62.7325,23.0652,65.0461,43.2127,58.8996,8.57,47.2762,19.45,94.7,52.5516,45.4366,33.7954,39.485,38.4418,35.3205,43.9279,68.3562,81.4338,57.4934,66.0513,50.0122,46.2747,12.0,66.6,23.6717,29.556,43.7263,15.94,28.5069,22.6147,46.3885,21.6018,46.4,103.0516,33.15,21.9097,46.7464,55.0078,46.4962,26.4875,26.7312,56.7846,43.2281,38.1672,33.5994,12.54,28.0867,,14.21,22.6321,54.2281,31.8526,50.0522,14.085,35.471,18.7906,24.0033,29.2539,19.824,41.8956,40.9055,52.8781,57.8701,54.5147,20.79,208.0158,36.3512,11.9634,11.3415,21.7553,75.3738,27.235,45.2723,48.752,45.822,,27.7194,7.25,48.52,17.71,19.7514,44.7126,33.3403,22.895,62.2828,21.39,14.1,39.468,24.693,55.4206,11.7842,33.9947,50.2199,38.5412,24.9604,66.9087,39.83,22.44,16.46,48.8408,32.0001,55.5499,28.9324,37.922,38.263,48.2748,28.3071,41.4173,15.33,14.8971,42.1455,4.49,40.505,32.4806,41.7549,20.0499,30.9176,31.1485,34.2196,43.4345,13.06,52.4549,33.7323,40.5233,11.3098,,30.3835,63.4,18.6,37.4342,13.4,68.1849,68.3685,44.3547,27.6869,,12.2495,35.2254,32.6162,97.1949,38.9024,40.283,28.0921,34.9989,38.56,44.7706,60.4062,60.4158,77.78149999999998,38.3578,61.709,42.02,34.9927,79.38339999999998,52.096,34.7783,58.91,35.5089,16.2125,50.5634,11.9,35.8548,26.876,182.85,41.5933,21.3558,36.3591,111.3786,14.04,62.3778,20.7433,112.8426,19.5651,21.7756,10.8177,42.3113,31.2397,66.8928,71.7796,36.1464,60.2967,37.4947,46.427,14.77,20.4762,22.7781,29.35,15.4586,60.0736,33.17,24.09,91.3451,,41.2783,30.81,23.6654,20.145,35.3294,13.64,40.2534,44.076,43.6551,17.24,24.95,18.7469,42.9027,15.12,25.845,64.9118,23.56,14.97,34.0,35.8837,24.8085,43.9482,55.6967,32.5548,32.4464,10.28,26.4598,49.3808,65.2117,41.5609,17.2343,47.6,26.795,46.917,56.8193,49.32,42.4828,73.7564,38.3654,55.5416,80.84439999999998,58.5417,47.1299,29.584,6.42,23.7625,23.562,17.4062,14.4683,82.29999999999998,28.4785,32.3144,36.0102,20.0208,58.9392,31.6018,28.0466,36.0045,42.6942,46.6717,52.6424,58.7905,39.6296,46.811,43.0,41.0043,44.07,36.6011,31.701,81.27719999999998,28.15,47.5828,28.8615,28.1244,15.7879,28.0956,20.6953,48.8573,25.282,99.1313,60.8185,9.5631,11.76,46.2689,28.9212,16.0618,31.306,27.64,33.8128,27.9903,42.3143,21.429,41.4684,52.9751,20.375,5.95,34.9344,19.0754,32.88,43.4019,27.7297,8.6262,29.47,21.4491,16.8891,38.6762,,18.14,42.3164,28.8877,13.26,31.8172,30.6802,27.6868,44.8836,29.3866,34.0403,35.2122,36.7965,48.34,50.793,53.3006,24.4619,39.2006,50.7969,40.5798,21.5588,43.1633,34.8205,22.3528,39.2499,26.5103,50.9591,38.8654,20.993,67.4104,25.2392,57.3589,53.6964,23.07,44.1781,4.1,35.8583,20.765,43.5307,39.0844,30.0634,31.1224,28.5127,46.96,38.45,47.8969,59.8092,31.687,32.8322,36.7882,23.2071,23.1375,47.2686,25.13,10.7311,24.82,26.0161,19.1612,102.85,44.0411,30.8371,30.8053,36.1524,22.7352,48.317,33.0859,25.04,27.4576,31.15,23.3694,60.5561,21.1399,39.6533,47.3165,70.5942,40.45,24.6191,44.8141,27.685,46.3436,32.2434,45.2241,19.0328,51.0157,21.8,33.9496,21.6019,35.0414,,15.1394,50.577,,15.68,20.75,48.6796,10.15,3.6012,31.0264,36.8632,25.0913,7.23,53.5936,27.75,41.0532,30.1628,37.6672,16.5282,16.6233,17.6683,25.6601,36.1813,53.7206,7.889999999999999,43.8423,16.8919,58.8204,73.6726,28.7137,50.1963,48.3671,37.7,56.1378,37.44,30.4623,56.1332,67.0845,25.65,33.9353,42.2096,50.13,53.3569,17.3458,28.9875,48.3389,10.96,29.055,61.6703,13.8651,60.175,37.7037,17.4808,29.0598,49.5094,30.72,,54.2035,60.1015,38.6703,,52.2835,16.822,71.426,29.5426,55.6688,15.13,29.1386,34.01,23.2637,67.2823,84.9
2005-02-15,23.45,28.2927,43.33,29.866,19.9012,77.43099999999998,44.3852,31.6988,44.1114,53.48,31.75,36.8871,24.0523,41.3627,29.98,47.7118,32.8397,15.51,33.9298,38.4319,37.0185,70.0828,33.6701,32.3236,11.57,51.8683,20.4658,16.9828,18.24,63.25,,17.81,36.21,19.71,53.8455,24.1978,57.3519,33.7009,58.2599,76.18,44.1665,61.6658,22.6305,65.1952,43.4563,58.773,8.87,46.8816,19.65,95.01,52.7851,45.3494,33.756,39.15,38.5561,35.8328,43.268,67.7817,81.82429999999998,57.6107,65.9951,50.2602,46.1069,12.0,67.0,23.2724,29.6043,43.6768,15.81,28.4392,22.5305,46.2419,21.879,46.5,102.0117,32.94,21.7141,46.5439,55.1717,46.3551,26.418,26.7968,56.8642,42.7082,38.0568,33.3728,12.54,28.1208,,17.042,22.2364,54.5495,31.669,51.1527,13.975,35.372,18.8204,24.0354,29.3363,19.236,42.5277,41.9977,52.7234,58.1405,54.6548,21.1266,208.5588,36.2977,12.2924,11.5224,21.533,75.4603,26.875,45.2425,49.4178,46.0387,,27.768,7.2,47.47,18.06,19.6623,44.3259,33.4398,22.52,61.9938,21.15,14.16,39.5076,24.2666,55.8811,11.9154,34.2934,50.1904,38.6793,25.804,65.1758,39.69,22.6974,16.7,48.8654,30.8533,55.1903,29.0016,37.778,38.2728,49.1201,28.2873,41.3803,15.41,14.9953,41.6805,4.44,42.095,32.2932,41.5576,20.0201,30.8579,31.4622,33.9357,43.6321,13.01,52.4076,33.5247,40.947,11.1713,,30.365,63.39,18.9,36.9962,13.31,67.7967,69.2678,44.208,27.1147,,12.1935,35.4096,32.3534,96.2304,39.3762,40.2737,28.218,35.1085,38.32,44.555,60.1784,61.0642,77.62489999999998,38.9276,64.0965,41.62,35.0941,78.5019,51.5156,34.8167,58.67,35.7016,16.525,50.765,11.84,35.616,27.7558,193.605,41.7359,21.267,36.0734,111.1021,14.29,61.9855,20.5546,116.4408,19.3718,21.8328,10.8797,41.9355,30.7934,67.2829,71.632,36.2528,59.8935,37.8122,46.427,14.6,20.2123,22.711,29.35,15.4393,60.723,33.1,23.66,91.6785,,41.2783,30.4391,23.8131,20.025,35.4717,13.63,39.9509,44.4524,43.5132,17.016,24.98,18.9712,43.9888,15.84,25.725,64.1419,23.55,14.81,33.6058,35.9792,25.1194,43.7529,55.7066,32.6029,32.6893,10.29,26.4127,49.6189,65.0479,41.5415,17.6829,46.84,26.8531,46.6678,56.3283,49.1,42.1846,72.66039999999998,38.3164,54.8467,80.8841,58.2468,47.1299,29.4049,6.39,23.7723,23.6537,17.3316,14.2484,82.29999999999998,28.4785,32.2598,35.9328,19.9626,58.7323,31.9447,27.8685,36.094,43.1405,47.1265,51.693,58.9274,39.6593,46.5989,43.75,40.8771,43.88,36.8935,31.1407,81.7872,28.26,47.6116,26.4589,28.4347,15.8375,28.2596,20.7634,48.8005,25.5076,99.8494,60.8284,9.6997,11.87,45.6995,28.8259,15.765,31.0573,27.15,34.3803,27.5609,41.917,21.617,41.5662,52.9554,19.81,5.88,34.543,19.0555,33.83,43.3438,28.1857,8.504099999999998,29.27,21.5054,16.6899,38.6762,,18.48,42.1882,29.2178,13.34,31.6034,30.3885,27.2249,44.836,29.1047,34.2496,35.3887,36.5969,48.22,50.8773,53.1068,24.6657,39.2104,51.0877,40.8564,21.7883,43.184,34.0633,22.4902,39.2007,26.3531,50.7178,38.9865,21.104,67.6089,25.5408,57.3589,54.1113,22.89,44.1781,3.98,36.6615,20.69,43.1516,38.8545,29.7574,31.2933,28.1263,46.1,38.45,47.604,58.8165,31.6392,33.6434,37.0509,22.8187,22.8711,47.767,24.995,10.89,25.1,26.0311,19.0626,102.08,43.9445,30.8421,30.3299,35.8122,22.5719,48.4256,32.9868,25.43,27.34,31.3278,23.3596,60.6586,21.0549,39.7318,46.8209,70.6911,40.08,24.3754,44.5784,27.635,46.2998,32.5671,45.3583,18.9732,50.4172,22.24,34.3185,21.6107,34.5758,,15.2341,50.9319,,15.34,20.63,49.0149,10.18,3.65,30.719,36.5766,25.0913,7.29,53.4948,27.58,40.9945,30.1381,37.6383,16.459,16.7079,17.7375,25.8393,36.0844,53.3273,7.99,44.6116,16.99,58.2479,73.50629999999998,28.5147,49.8397,48.5636,37.5,56.9598,36.62,30.5762,55.7211,67.3656,26.53,34.1684,41.9222,49.65,53.0578,17.0551,29.2347,48.9005,11.35,28.65,61.9534,13.8741,60.745,38.0103,17.3327,29.2837,49.4905,30.14,,54.2659,59.5666,38.967,,52.5701,16.9153,72.3319,29.4533,56.1042,15.07,29.1904,34.34,23.5357,66.7781,82.65
