Date,A,AA,AAPL,ABC,ABI,ABK,ABT,ACAS,ACE,ACS,ADBE,ADI,ADM,ADP,ADSK,AEE,AEP,AES,AET,AFL,AGN,AIG,AIV,AIZ,AKAM,ALL,ALTR,AMAT,AMD,AMGN,AMP,AMT,AMZN,AN,ANF,AOC,APA,APC,APD,APOL,ASD,ASH,ATI,AVB,AVP,AVY,AW,AXP,AYE,AZO,BA,BAC,BAX,BBBY,BBT,BBY,BC,BCR,BDK,BDX,BEN,BF.B,BHI,BIG,BIIB,BJS,BK,BLL,BMC,BMS,BMY,BNI,BRCM,BRL,BSC,BSX,BTU,BUD,BXP,C,CA,CAG,CAH,CAT,CB,CBE,CBG,CBH,CBS,CC,CCE,CCL,CCU,CEG,CELG,CFC,CHK,CHRW,CI,CIEN,CINF,CIT,CL,CLX,CMA,CMCSA,CME,CMI,CMS,CNP,CNX,COF,COH,COL,COP,COST,COV,CPB,CPWR,CSC,CSCO,CSX,CTAS,CTL,CTSH,CTX,CTXS,CVG,CVH,CVS,CVX,CZN,D,DD,DDR,DDS,DE,DELL,DF,DFS,DGX,DHI,DHR,DIS,DJ,DOV,DOW,DRI,DTE,DTV,DUK,DVN,DYN,EBAY,ECL,ED,EDS,EFX,EIX,EK,EL,EMC,EMN,EMR,EOG,EP,EQ,EQR,ERTS,ESRX,ESV,ETFC,ETN,ETR,EXC,EXPD,EXPE,F,FCX,FDO,FDX,FE,FHN,FII,FIS,FISV,FITB,FLR,FNM,FO,FPL,FRE,FRX,GAS,GCI,GD,GE,GENZ,GGP,GILD,GIS,GLW,GM,GNW,GOOG,GPC,GPS,GR,GS,GT,GWW,HAL,HAR,HAS,HBAN,HCBK,HD,HES,HET,HIG,HNZ,HOG,HON,HOT,HPC,HPQ,HRB,HSP,HST,HSY,HUM,IACI,IBM,ICE,IFF,IGT,INTC,INTU,IP,IPG,IR,ITT,ITW,JAVAD,JBL,JCI,JCP,JDSU,JEC,JNJ,JNPR,JNS,JNY,JPM,JWN,K,KBH,KEY,KFT,KG,KIM,KLAC,KMB,KO,KR,KSS,LEG,LEH,LEN,LH,LIZ,LLL,LLTC,LLY,LM,LMT,LNC,LOW,LSI,LTD,LTR,LUK,LUV,LXK,M,MAR,MAS,MAT,MBI,MCD,MCHP,MCK,MCO,MDP,MDT,MER,MET,MHP,MHS,MI,MIL,MKC,MMC,MMM,MNST,MO,MOLX,MON,MOT,MRK,MRO,MS,MSFT,MTB,MTG,MTW,MU,MUR,MWV,MYL,NBL,NBR,NCC,NE,NEM,NI,NKE,NOC,NOV,NOVL,NSC,NSM,NTAP,NTRS,NUE,NVDA,NVLS,NWL,NWS.A,NYT,NYX,ODP,OMC,OMX,ORCL,OXY,PAYX,PBG,PBI,PCAR,PCG,PCL,PCP,PDCO,PEG,PEP,PFE,PFG,PG,PGN,PGR,PH,PHM,PKI,PLD,PLL,PNC,PNW,POM,PPG,PPL,PRU,PSA,PTV,PX,Q,QCOM,QLGC,R,RAI,RDC,RF,RHI,RIG,RL,ROH,ROK,RRD,RSH,RTN,RX,S,SAF,SBUX,SCHW,SE,SEE,SGP,SHLD,SHW,SIAL,SII,SLB,SLE,SLM,SNA,SNDK,SNV,SO,SOV,SPG,SPLS,SRE,SSP,STI,STJ,STR,STT,STZ,SUN,SVU,SWK,SWY,SYK,SYMC,SYY,T,TAP,TDC,TE,TEG,TEL,TER,TEX,TGT,THC,TIE,TIF,TIN,TJX,TLAB,TMK,TMO,TRB,TROW,TRV,TSN,TSO,TWX,TXN,TXT,TYC,UIS,UNH,UNM,UNP,UPS,USB,UST,UTX,VAR,VFC,VIA.B,VLO,VMC,VNO,VRSN,VZ,WAG,WAT,WB,WEN,WFC,WFMI,WFR,WFT,WHR,WIN,WLP,WM,WMB,WMI,WMT,WPI,WU,WWY,WY,WYE,WYN,X,XEL,XL,XLNX,XOM,XRX,XTO,YHOO,YUM,ZION,ZMH
2005-01-03,0.0,0.0,0.0,0.0,0.0,0.0,0.0,0.0,0.0,0.0,0.0,0.0,0.0,0.0,0.0,0.0,0.0,0.0,0.0,0.0,0.0,0.0,0.0,0.0,0.0,0.0,0.0,0.0,0.0,0.0,0.0,0.0,0.0,0.0,0.0,0.0,0.0,0.0,0.0,0.0,0.0,0.0,0.0,0.0,0.0,0.0,0.0,0.0,0.0,0.0,0.0,0.0,0.0,0.0,0.0,0.0,0.0,0.0,0.0,0.0,0.0,0.0,0.0,0.0,0.0,0.0,0.0,0.0,0.0,0.0,0.0,0.0,0.0,0.0,0.0,0.0,0.0,0.0,0.0,0.0,0.0,0.0,0.0,0.0,0.0,0.0,0.0,0.0,0.0,0.0,0.0,0.0,0.0,0.0,0.0,0.0,0.0,0.0,0.0,0.0,0.0,0.0,0.0,0.0,0.0,0.0,0.0,0.0,0.0,0.0,0.0,0.0,0.0,0.0,0.0,0.0,0.0,0.0,0.0,0.0,0.0,0.0,0.0,0.0,0.0,0.0,0.0,0.0,0.0,0.0,0.0,0.0,0.0,0.0,0.0,0.0,0.0,0.0,0.0,0.0,0.0,0.0,0.0,0.0,0.0,0.0,0.0,0.0,0.0,0.0,0.0,0.0,0.0,0.0,0.0,0.0,0.0,0.0,0.0,0.0,0.0,0.0,0.0,0.0,0.0,0.0,0.0,0.0,0.0,0.0,0.0,0.0,0.0,0.0,0.0,0.0,0.0,0.0,0.0,0.0,0.0,0.0,0.0,0.0,0.0,0.0,0.0,0.0,0.0,0.0,0.0,0.0,0.0,0.0,0.0,0.0,0.0,0.0,0.0,0.0,0.0,0.0,0.0,0.0,0.0,0.0,0.0,0.0,0.0,0.0,0.0,0.0,0.0,0.0,0.0,0.0,0.0,0.0,0.0,0.0,0.0,0.0,0.0,0.0,0.0,0.0,0.0,0.0,0.0,0.0,0.0,0.0,0.0,0.0,0.0,0.0,0.0,0.0,0.0,0.0,0.0,0.0,0.0,0.0,0.0,0.0,0.0,0.0,0.0,0.0,0.0,0.0,0.0,0.0,0.0,0.0,0.0,0.0,0.0,0.0,0.0,0.0,0.0,0.0,0.0,0.0,0.0,0.0,0.0,0.0,0.0,0.0,0.0,0.0,0.0,0.0,0.0,0.0,0.0,0.0,0.0,0.0,0.0,0.0,0.0,0.0,0.0,0.0,0.0,0.0,0.0,0.0,0.0,0.0,0.0,0.0,0.0,0.0,0.0,0.0,0.0,0.0,0.0,0.0,0.0,0.0,0.0,0.0,0.0,0.0,0.0,0.0,0.0,0.0,0.0,0.0,0.0,0.0,0.0,0.0,0.0,0.0,0.0,0.0,0.0,0.0,0.0,0.0,0.0,0.0,0.0,0.0,0.0,0.0,0.0,0.0,0.0,0.0,0.0,0.0,0.0,0.0,0.0,0.0,0.0,0.0,0.0,0.0,0.0,0.0,0.0,0.0,0.0,0.0,0.0,0.0,0.0,0.0,0.0,0.0,0.0,0.0,0.0,0.0,0.0,0.0,0.0,0.0,0.0,0.0,0.0,0.0,0.0,0.0,0.0,0.0,0.0,0.0,0.0,0.0,0.0,0.0,0.0,0.0,0.0,0.0,0.0,0.0,0.0,0.0,0.0,0.0,0.0,0.0,0.0,0.0,0.0,0.0,0.0,0.0,0.0,0.0,0.0,0.0,0.0,0.0,0.0,0.0,0.0,0.0,0.0,0.0,0.0,0.0,0.0,0.0,0.0,0.0,0.0,0.0,0.0,0.0,0.0,0.0,0.0,0.0,0.0,0.0,0.0,0.0,0.0,0.0,0.0,0.0,0.0,0.0,0.0,0.0,0.0,0.0,0.0,0.0,0.0,0.0,0.0,0.0,0.0,0.0,0.0,0.0,0.0,0.0,0.0,0.0,0.0,0.0,0.0,0.0,0.0,0.0,0.0,0.0,0.0,0.0,0.0,0.0,0.0,0.0,0.0,0.0,0.0,0.0,0.0,0.0,0.0,0.0,0.0,0.0,0.0,0.0,0.0,0.0,0.0,0.0,0.0,0.0,0.0,0.0,0.0,0.0,0.0,0.0,0.0,0.0,0.0,0.0,0.0,0.0,0.0,0.0
2005-01-04,0.0,0.0,0.0,0.0,0.0,0.0,0.0,0.0,0.0,0.0,0.0,0.0,0.0,0.0,0.0,0.0,0.0,0.0,0.0,0.0,0.0,0.0,0.0,0.0,0.0,0.0,0.0,0.0,0.0,0.0,0.0,0.0,0.0,0.0,0.0,0.0,0.0,0.0,0.0,0.0,0.0,0.0,0.0,0.0,0.0,0.0,0.0,0.0,0.0,0.0,0.0,0.0,0.0,0.0,0.0,0.0,0.0,0.0,0.0,0.0,0.0,0.0,0.0,0.0,0.0,0.0,0.0,0.0,0.0,0.0,0.0,0.0,0.0,0.0,0.0,0.0,0.0,0.0,0.0,0.0,0.0,0.0,0.0,0.0,0.0,0.0,0.0,0.0,0.0,0.0,0.0,0.0,0.0,0.0,0.0,0.0,0.0,0.0,0.0,0.0,0.0,0.0,0.0,0.0,0.0,0.0,0.0,0.0,0.0,0.0,0.0,0.0,0.0,0.0,0.0,0.0,0.0,0.0,0.0,0.0,0.0,0.0,0.0,0.0,0.0,0.0,0.0,0.0,0.0,0.0,0.0,0.0,0.0,0.0,0.0,0.0,0.0,0.0,0.0,0.0,0.0,0.0,0.0,0.0,0.0,0.0,0.0,0.0,0.0,0.0,0.0,0.0,0.0,0.0,0.0,0.0,0.0,0.0,0.0,0.0,0.0,0.0,0.0,0.0,0.0,0.0,0.0,0.0,0.0,0.0,0.0,0.0,0.0,0.0,0.0,0.0,0.0,0.0,0.0,0.0,0.0,0.0,0.0,0.0,0.0,0.0,0.0,0.0,0.0,0.0,0.0,0.0,0.0,0.0,0.0,0.0,0.0,0.0,0.0,0.0,0.0,0.0,0.0,0.0,0.0,0.0,0.0,0.0,0.0,0.0,0.0,0.0,0.0,0.0,0.0,0.0,0.0,0.0,0.0,0.0,0.0,0.0,0.0,0.0,0.0,0.0,0.0,0.0,0.0,0.0,0.0,0.0,0.0,0.0,0.0,0.0,0.0,0.0,0.0,0.0,0.0,0.0,0.0,0.0,0.0,0.0,0.0,0.0,0.0,0.0,0.0,0.0,0.0,0.0,0.0,0.0,0.0,0.0,0.0,0.0,0.0,0.0,0.0,0.0,0.0,0.0,0.0,0.0,0.0,0.0,0.0,0.0,0.0,0.0,0.0,0.0,0.0,0.0,0.0,0.0,0.0,0.0,0.0,0.0,0.0,0.0,0.0,0.0,0.0,0.0,0.0,0.0,0.0,0.0,0.0,0.0,0.0,0.0,0.0,0.0,0.0,0.0,0.0,0.0,0.0,0.0,0.0,0.0,0.0,0.0,0.0,0.0,0.0,0.0,0.0,0.0,0.0,0.0,0.0,0.0,0.0,0.0,0.0,0.0,0.0,0.0,0.0,0.0,0.0,0.0,0.0,0.0,0.0,0.0,0.0,0.0,0.0,0.0,0.0,0.0,0.0,0.0,0.0,0.0,0.0,0.0,0.0,0.0,0.0,0.0,0.0,0.0,0.0,0.0,0.0,0.0,0.0,0.0,0.0,0.0,0.0,0.0,0.0,0.0,0.0,0.0,0.0,0.0,0.0,0.0,0.0,0.0,0.0,0.0,0.0,0.0,0.0,0.0,0.0,0.0,0.0,0.0,0.0,0.0,0.0,0.0,0.0,0.0,0.0,0.0,0.0,0.0,0.0,0.0,0.0,0.0,0.0,0.0,0.0,0.0,0.0,0.0,0.0,0.0,0.0,0.0,0.0,0.0,0.0,0.0,0.0,0.0,0.0,0.0,0.0,0.0,0.0,0.0,0.0,0.0,0.0,0.0,0.0,0.0,0.0,0.0,0.0,0.0,0.0,0.0,0.0,0.0,0.0,0.0,0.0,0.0,0.0,0.0,0.0,0.0,0.0,0.0,0.0,0.0,0.0,0.0,0.0,0.0,0.0,0.0,0.0,0.0,0.0,0.0,0.0,0.0,0.0,0.0,0.0,0.0,0.0,0.0,0.0,0.0,0.0,0.0,0.0,0.0,0.0,0.0,0.0,0.0,0.0,0.0,0.0,0.0,0.0,0.0,0.0,0.0,0.0,0.0,0.0,0.0,0.0,0.0,0.0,0.0,0.0,0.0,0.0,0.0,0.0,0.0,0.0,0.0,0.0,0.0,0.0,0.0
2005-01-05,0.0023115964412646025,0.0006415754369081802,-0.005055448549634778,-0.001401611146815578,0.004757593254235386,-0.0003319932572937715,-0.0009665536363221205,0.0025583096681078814,-0.0024685129351842135,-0.00020138193968349257,0.0023197419790752885,0.002477246690469808,-0.0007943888813897278,0.00021717763395848934,0.010057963727530973,-0.0013976976418083491,-0.002223151606655567,0.004425799334498123,0.0005117342893928559,-0.002788507629081445,-0.00013796430173216017,-0.003661003020353322,-0.00016420787772714507,0.0009372736156528758,0.0067295658686504795,-0.0023238547622541576,0.005534480414886333,0.0008334487922219468,0.008274575250837033,0.00019832358594661147,0.0,-0.00033477037812196567,0.007754096443745874,-0.004272078833984545,-0.007201332519104298,-0.0011153173343202648,-0.0013672934732281254,-0.0007579545821139199,0.0008523069223486288,-0.005968548367607532,-0.0009457253089909652,0.002770392645045692,0.003204870222765983,-0.0007487363180144393,-9.640280588757005e-05,-0.00020553309027642437,-0.002770027341244509,2.8498120213612746e-05,0.0004349756051966871,-0.0006655370418985596,0.0009131813466367537,-0.00022216243874434552,-0.0025851514013484353,-0.0017320701780272592,-0.0033283589998217796,0.0023660092863898577,-0.0014184684326936895,-0.002123720173621476,-0.0003568616457563357,-0.0006582900375906811,-0.0016614566863111244,-0.0017783287602933572,-0.0035258364859141944,0.004358315198711115,0.0016479962240067737,-0.0003016082432729496,0.00010506003374608537,-0.002991148673496082,0.008446932528003529,7.754279240687401e-05,-0.0007777371819447837,0.0033493239406732285,-0.0004134286448184454,0.0008182024383020677,-0.0009884950506464942,-0.002287739081136901,-0.0005203451264458915,-0.002831944907855065,0.00045098100225765195,-0.0012835385949393422,0.003987226978417139,-0.002303135193384093,0.0027034797183710393,-0.0007711763955353844,-0.00022562441194674536,-0.0003373582078664647,-0.0018321239301527772,-0.0023590277572309937,0.0,-0.002991148673496082,-0.0013612780316830497,-0.0020791788983227383,-0.0008527238166686096,-0.0011913364117522836,0.005644942537485155,-0.00041624076170774875,-0.0013016932101978104,-0.0021122174372837565,-0.00153369808505594,0.012749759659132583,3.848538238495013e-05,0.002593153687944584,-0.0015845434788875274,-0.0008900505649682888,-0.001660718352674942,0.002145431930519112,0.000154259365849763,0.0017221015416318663,-0.0002822581194550452,-0.0009918510351619,0.0031105371174276857,0.0007264212313601946,0.0015687263495675035,0.0008325079827126159,-0.00167699707961348,0.00061761451327239,0.0,-0.004209013905441409,0.003583594490599715,0.0006975752710338739,0.0049156557350261395,0.001349672468448579,-0.00015031035242241036,-4.584886464630216e-05,-0.0007327296733090732,0.007461837920073491,-0.00015547402844801254,0.006410003936636754,-0.0010699166813660749,-0.0007131248313434515,-0.001608961640063863,-0.0011979163527233608,-0.0020676080103676376,0.0013466568056767388,0.0006887282207455051,0.0011973101195601903,0.0018036607109711293,0.003117228919017342,-0.002742617865438423,0.0020398228537381546,-0.0007418970973034547,0.005896693213972644,-0.0009177920673955445,-0.0008263052734982835,-0.0025700490521311835,-0.002063942760513075,0.0013570109109127297,-0.0024739683543807275,-0.0029443289075108503,0.0023720828636368914,-0.000985464161877337,-0.0025050772039600586,0.0,0.0019409170073960498,-0.00043524964453951916,-0.0023875685231246257,0.0014660263540679942,0.004022534721663084,-0.0024844641397707657,-0.003053107243454129,0.0010649548482357487,0.0027399920072228726,0.014934153984797544,-0.0006505266191713252,0.00017997800987437691,-0.003189280062687364,0.0,-0.001743634778732809,0.002753574821394856,-0.001959976304428846,-0.0005057989605870293,0.005212904021060773,0.0024342221865904694,-0.0014483064735003961,-0.0016429513911975682,0.000344609006759889,0.0,-0.0023075433274582597,0.004949743293089351,0.0008639356465853832,0.0005995586530977003,-0.0023271033692763444,-0.0007506930985046165,-0.0018470390466646734,-0.0013372718626464234,-0.00042968844314903684,-0.0015537169550410195,7.815613815875758e-05,0.0008442783380542489,-0.001491482124617931,-0.0005431111692123416,0.00014833436267656325,0.0028296452744972092,-0.0013854915953516037,-0.0020009408882831216,0.0022297332194981833,-0.0005744966997253427,-0.0005745340925327953,0.00025434994629269575,0.001928212033792876,-0.0023742878000057393,9.850737970596723e-05,-0.0009461903715721094,-0.0009141966356755732,0.005149565545075496,-0.0011478744184705934,7.65414113453793e-05,0.0014408704892385246,-0.0016888681490607065,0.0029444008598812858,0.0004049636346056241,-0.0032019815059666106,-0.0004966756079493246,-0.00246500121378084,-0.0017685418673258028,-0.0017135690479568335,-0.00042607108767052344,-0.003371399107979993,0.00047019689312275125,-0.0007708280377403743,-0.0014843324343455494,-0.003192829447602229,0.000595799420498292,-0.0017260469458316979,0.0005760742387446857,-0.0016546639520248878,-0.0005556018039426773,0.0009583537195153385,-0.0012171708734126695,-0.005135643133890952,-0.0025775698853960057,0.0009304136225440341,-0.0008319608327193583,0.0,0.0027380633856974724,-0.002634820858567953,0.001016357941168336,0.0036151217305474305,0.001841127726083358,0.0005954557758715153,0.0010354054309969964,-1.564204115929531e-06,-0.0017260040739626463,0.015889410952333448,0.0018973626605122839,-0.0003989434801308075,0.0010852230946957484,0.002146213397216845,-0.00303448616616891,-0.0023520448791599933,0.004653119664944493,0.0006856676255888147,0.00026299819814172635,-0.0009187003478001949,0.00038742587308343985,-0.00226599011674354,0.006217412270301658,-0.0021501631412971373,-0.0021838106366717028,-0.001847250269336315,-0.0006145105092651292,0.0035313531669097986,-0.0030845313625421857,-0.00018475801108353042,0.0024010334438865615,0.0034137404455648153,-0.0029185690048516596,0.0006636606650993357,0.0062333681844890364,-0.0021244166177774985,0.0006432554482350026,0.006759649482451611,0.001808265981779829,-0.0003108893567592899,0.0013520247403919503,0.00041993399720842564,-0.003819145369921232,0.0012048923752877461,0.006906543687171994,-0.0012983104966635716,-0.0029328439672309387,0.003098851436696047,0.0027633119405881396,0.0005086036877349272,-0.002991148673496082,9.45329121732194e-05,0.0012962468060101636,-0.0032007491468228023,-0.0017443663060938252,-0.004633674726755218,0.0004873667356521342,-0.00040371095170213317,3.953607661827903e-05,-0.0014269958316637681,-0.0020561858745858784,-2.250958048958911e-06,-0.0017395932768859527,-0.0029241558505217462,-0.004200530689240027,-0.0008266733986597561,-0.0013449628338839201,-0.003097050965144521,-0.0036021502881944606,-0.0013567483995691949,0.01308134789128028,-0.004383600629882618,-0.0001618368087027074,0.005232178409634273,0.0010153393529508956,-0.002155722427631346,-0.0007388696546320123,-0.0008337945588882772,-0.0037428202448537605,-0.0021178504199064196,-0.002485526692349907,8.096276379058033e-05,0.002703831238642142,-0.0039354786785359315,0.0010913600113246788,0.0012447279746928273,-2.3542480313882332e-05,-0.0019643848248209503,-2.572029629363283e-05,-0.001181074072731588,0.0007578826885597555,0.00015378001175723278,-0.0001317536359323774,0.0013171393296950511,-0.002931926725642035,0.004657226174930232,-0.0013504608363544732,0.0032289363936913776,0.004999648828694655,-0.0012536194183179867,-0.0016763113329267387,0.006470650013037983,0.00541454434774285,0.00018916623173009838,0.0013053206052674455,-0.002144587384626635,0.0,0.0014495333373367159,-0.0028721340650920833,-0.0016050943475927118,0.002254917833276857,-0.0007520995773646079,0.001041096169858972,-0.0006815438505023566,0.0010022360961316793,0.003638361180250001,-0.001469415325751121,-9.619859187174828e-05,0.00198718703906151,-0.0003849990330858114,-0.0012946730521672626,-0.0015591816651486633,-0.002991148673496082,-0.0027929086824060624,-0.00047810080018977546,-0.0007507405241534138,-0.0010171117642821179,0.001234468846159191,0.004605878927012961,-0.000533992397401344,-0.0016702080721491491,0.00018225970913456275,-0.0015699712064609183,-0.0027180823887764933,-0.0033775994026790817,0.0015519493933886545,-0.000755154512021517,-0.0015357959606692665,-0.00044703024563561944,-0.0017918688941604877,-0.0001121002433955824,-0.0,-0.002088812155251095,0.004162045328997893,-0.0009690443856335035,-0.0010711208711451459,-0.0024261833502866002,-0.002306864457716936,-0.003906435636209051,-0.0023899543833166958,-0.0007792566541715865,0.005620351844293425,0.00010109699195535951,-0.00027841040761873736,0.003893065393041946,0.004773734787069024,0.0008636997339990546,0.0034801383878540386,-0.0006939418059973226,-0.002859647665307234,0.0016632671440840365,-0.0011972748480181701,0.0035967156582144026,0.0024515437970862746,-0.003493144904806374,-0.0006220441920172031,0.0010678853942364737,-0.002455535978544369,-0.0014584985375530458,-0.005672593050560898,0.0006135149414480868,0.001174777226122784,0.0037420781967884794,-0.001228400756730552,-0.0028696451647612187,-0.0037944454349930546,-0.0007908117824599178,0.0011077286110681137,-0.0024927622748493,-0.0032858416065668083,-0.0006438384908778016,-0.0018157142231063441,0.0003133531832742355,-0.0021659587498842033,-0.0010010566832322852,-0.0033278291012353266,-0.0006619841003144465,0.0003218413191389064,0.004296808271517003,-0.0056570635462029175,0.0030695169716622303,0.0002996227351339705,-0.0008705440922833018,0.0010626103482524404,0.0,-0.002068411069888568,-0.000748068435742766,0.0,0.009139164604514973,0.0018823596932246263,-0.000818108928194208,-0.0011144045930418806,-0.0,-0.0006383184527185446,0.0008718055970007257,-0.002263201188135793,0.007737571653100389,-0.0009733799542000318,-0.000485429749097214,-0.002894214332400787,0.0026153706973054748,-0.001857950393150263,-0.003102986279990039,-0.0007019615191372952,0.00021872832666022755,0.0018307839877357388,0.0012332879437285697,-0.004182004008174679,0.0006268385648035003,-0.0009255466159656989,-0.0027622134102254546,0.001896694178960724,-0.0004372233367486826,-0.002020137605782825,-0.003158828804595677,-0.0006690623077610281,0.0023700865103825613,-0.0012932609631137967,-0.003539727524524026,-0.0030383914909211467,-0.0007251034305710652,2.3967697497906247e-05,0.0037376359459185965,-0.0009556338701134428,-0.0015476652482941608,0.0003903119793948062,-0.0009111519591138622,-0.003664243522021278,-0.0031536987294328227,-0.002712345977997377,0.010769572019181804,-0.002950722428319777,0.00047295266233178204,0.0,-0.0003111581266075099,-0.0004174643063405856,-0.0013084772842697461,-0.000745409035030169,-0.002501573554649426,-0.001226891573663485,0.0,-0.001929212635080742,9.865006463725964e-05,-0.0016684340523847522,0.0,-0.0007890427149292808,2.1092514549077612e-05,-0.0034639468544656665,0.0027084072286659533,-0.0016267551515544226,-3.005128079361449e-05,-0.0021386067704813713,0.005432079865703228,-0.0003294538344041556,-0.0002473135040110931,-0.0029151852226205577
2005-01-06,-0.0014675371968049763,-0.0003280950038448479,-0.003376738050511016,-0.001160850576616837,-0.001761953170546297,-0.0036269759741085145,0.0008265489673270273,-0.004474565565761798,-0.001409409789691228,-0.0015212421397167025,-0.00041522788888997985,-0.0024959035366346922,0.0019829176637634954,-0.0006900794702662354,-0.003159825375931191,0.00031563224525946924,0.0008957146060131461,-0.0010792391768022992,-0.003588864024225872,-3.7824545849912093e-05,-0.000953145295550189,-0.0050068048816078806,0.007226809600001409,0.00016910595597582358,0.0018494150281879566,7.109939340869064e-05,0.0020157492615397307,0.0019692324843492066,0.003172504136202311,0.0017277221949048352,0.0,0.0002983217905612158,0.00026750403031912043,-0.002105154517585059,-0.002391806417542375,0.004047049189415824,-0.0008630465800689712,0.0018933929198970438,-0.0017394113236189304,0.0010464162665604353,0.0012917352375737005,0.0010073494521317423,0.004316175734301261,0.008469384313122231,-0.0005082001738442052,0.0010070792542271239,0.00370638594237191,-8.09755536685065e-05,0.0007360505849865317,-0.0029236135446536215,-0.005007602271774049,0.0008466781895676633,-0.0037817566935034823,-0.0033906185038402228,-0.0027994304928938532,-0.002817331682992304,-0.0003061780841374233,0.001241857328654765,0.001442347813184512,-0.0003935853959416099,0.0014213316779377449,-0.0022092997840605345,-0.0008553780837497581,-0.0015569073760119529,-0.0018135913372920006,0.0012135300846984156,-0.0018756805719380516,0.0033766099550369406,-0.0007048278993901844,-0.001045025649024963,-0.0008880914294140556,-0.00017560675248495296,0.0020641989820649655,-0.00774325336054869,-0.0035249566856877853,-0.004779804751715309,0.00402066337172923,0.0006244260831655306,0.006613396196436172,-0.004162209744716192,0.0013064041979037216,0.000511309493675175,-0.0010705398786020788,0.0024212571661697086,-0.0013078652670512067,0.0013182182973720453,0.0044051966122915865,0.0008430382639311377,0.0,0.015804457404468134,-5.819571543146763e-05,-0.0011929708878377701,0.0032310852439817236,-0.0017495763272995244,-0.004693917838044319,0.002344371692651654,6.764673087628302e-05,-0.0034193678770274,-0.00024890550708330536,0.0004802070029703731,-0.005448500882218921,0.007906776806895135,0.0031285596404871793,-0.0005133972281668948,0.0006237856770142328,-0.0035030734702004734,-0.004463018455915276,0.007491991244005383,0.0012796667966850825,0.0022371910816737926,0.0024750813778034704,0.0005147707857191264,-0.0017498374286175017,-0.0007404091415284318,-0.003098604087901118,-0.002352007306261136,0.0,4.2225447383402334e-05,0.004131267073513534,-0.0006428941795770756,-0.001668860860201739,-0.0007574872513683075,-0.001019639755996021,0.0023214594720489504,0.0003521485555488409,0.001657005676459305,0.005439243016452561,-0.004285260981034535,-0.004324174505770199,-0.0051057514007847755,-0.002913552649116742,-0.0026481605875487368,-0.00010280574165403154,0.001210076069635929,0.006676555158260119,-0.0005303809147455912,0.0004568239372448132,-0.00017235332869769778,0.0021087636234938187,-0.0007948572538009919,0.001282478089586985,0.0029178867252094777,-0.0005114359690884369,-0.00042499449575261316,-6.3176868367318456e-06,0.002498934961345511,0.000547105434154872,0.004412137720922402,-0.000341875759600476,-0.0009096000032512188,3.531407188520412e-05,0.0012989068042271715,-0.0,-0.0007915482588702775,0.0004504155628369111,0.000705576837757299,0.002138610136725605,-0.0028341607840757926,0.0017883753379173246,-0.0006617836151077686,0.002396790807089686,0.0022183737791669927,0.0007523605116534444,0.00030985916848815616,0.0001881619550241323,0.0002846657448915505,0.0,0.005107588545861441,-0.003559576128024674,-0.0031229239037659337,-0.0025835884289494436,0.0021272356498071125,0.0014753333817504577,0.0017833530371411785,0.0015402654940277068,-0.008106959996210542,0.0,0.001703400540406969,0.0008266270089774484,-0.0018320770810557315,-0.0012962927418770558,0.00013811104382009822,-0.0013613290561535608,-0.001767075672253357,-0.0006651105895289934,-0.0026087204190704317,0.0017879492569673238,0.004011340722541018,-0.001229951588186015,0.00036103638036204613,0.0011183542657240335,9.143117324538576e-05,0.004349395357458659,-0.00017183665040416095,-0.00027115340087293326,-0.0013478099023657478,-0.000292283864123725,-0.0023264839191830143,0.005562771748936631,0.001325597444779465,-0.0058196104009017235,0.0007858624995565811,0.00245379442911431,0.002318312364381365,-0.0004992836742657637,0.0007505636431614024,-0.0024627449165910012,0.002468435994159883,-0.0006201796575116952,0.00016745500287765436,0.001495156977191436,0.0010634640387185094,0.0003624892095386381,7.91107768937678e-05,-0.00019915034022730143,0.00017678365761620885,0.0003474580004344343,-0.0002498875284489113,-0.003941226349172684,-0.0006714306402421133,-0.0006904597679625406,-0.0009327687049126471,-0.0009576723874088789,0.00019835627583777096,0.0013310101591679877,-0.0024516105709733085,0.003583628128601824,0.004337721465298548,0.0055943937406777635,0.0034734910886869987,-0.005841147925624218,6.451803683388965e-05,-0.0011271621193384605,0.0,-0.0013026750647000894,-0.00026599244897298514,0.00046515130020939225,0.0007968950662250049,-0.004547098191259773,-0.0012423189329291116,0.0031208847599219175,-0.001101221370137591,-0.002782154964006277,-0.004698375338416634,0.0027593715325089337,0.0002539635237512961,-0.0026835821385107978,0.0032119439898679342,0.002071167424408794,-0.0014242814830372898,-0.0002683140944231313,0.0010242810296550785,0.0031161825288314867,-0.0019896289845965157,-0.00811524717470753,-0.0028262382822674087,-0.0005300861787933975,-0.00018379433134519885,0.00011778546093249918,-0.0018967040508381006,0.007293034444061882,0.0018090522691497904,0.002014586142356354,-0.0005931208335547753,0.0001854436716154478,-0.003212222959436541,-5.7309109965542636e-05,-0.002766779294649881,0.0003875314798494616,0.0010570183130018543,0.002621933944346837,-0.004335413988451469,0.000621855276891306,-0.003728491388670815,0.00030841407038818814,-0.006781722717899585,-0.0011082790712734188,0.0002003010769523289,-0.030944919990732872,-0.0039723250660387704,-0.0019159113722657275,0.0034783827788680026,-0.0015569073760119529,-0.003746219955722868,-0.00040143886890412075,-0.001692202207781008,0.0014184227557654178,0.001690981427992626,-0.00019316460520375932,6.253478852866903e-05,0.0047870658362473536,-0.0014887907545880843,-0.0006623056201265545,0.000887953111150641,-8.793216232521277e-06,-0.0008084151586717283,-0.00020343816314239967,-0.001972574200351542,-0.004290929305698769,-0.0032410486838160514,0.0005878662269628193,0.0010680560957167771,0.00033224286797280025,0.0009854290251511836,0.006601120475925932,-0.001182296062582087,0.00285618793600993,0.0037618988764191556,0.0009289725883342853,-0.0029587337786057214,0.0009702722455378988,-0.0003541931381129108,-0.0010924141912730726,-0.001241708385844398,-0.0014337568845873177,0.004729854858468712,0.0007597424237569579,0.0008986443112849479,2.6624186050314784e-05,0.00037657373807992997,0.003077717159070493,0.0006622042826699398,0.0006498584781734091,-0.0015569073760119529,-0.0020571082727072524,-0.0003302744938351368,0.0009298019459237484,-0.004723241885352216,0.0004639965437211516,-0.0028720065320638312,-0.005389134911248006,-0.0011880665692594005,-0.0018877762719613203,-0.0007615695068546208,0.0002676180011759526,-0.0034988294942941787,0.001068256100119163,0.002749458504626502,0.0003724016098937484,-0.002177486295032407,0.0,0.0010373250852128634,-0.0005740544881725846,0.010052373817225206,-0.0021933106429528307,-0.0004049053807527628,-9.707804835495416e-05,0.0009361147646140642,0.00200730268661029,0.005148345768437413,0.0009790061707343803,0.007220140239869259,-0.0026787010263450827,-0.001361940764089659,0.0011986703159498127,-0.0017984673707439973,-0.00014252925300299813,0.0008024108086032771,-0.0037301330895217017,-0.000994542270631801,-0.0017000673594199122,0.0021381546033097678,0.00015091250778037082,0.004632933544588787,0.005415283631831794,-0.0012604069802561934,0.0002928143643793657,0.003063658145550103,0.0007363399602381225,0.0013827902647031306,0.0014151316375621225,0.000502708770880807,0.005864079707213905,0.0012701084968614602,0.00266099048788214,-0.0,-0.0024446783945533393,-0.0015569073760119529,-0.002680208072735768,-0.0008885208877246542,-0.0020586822820298045,-0.0003147498617032857,0.002717479613336309,-0.0005179790427309507,0.0007051536147254868,0.0013619217222525816,0.0028152050253392245,0.001165548661933198,-0.005767880165677523,-0.0032610399946693207,0.001029009092699581,-0.0025078554953934145,-0.0007284959978774618,-0.00325728108023613,-0.0002803038821328492,0.006105857346300563,0.0037232908292243426,-0.00033942327724995226,0.006269996659468076,0.0013975383713893377,-0.00042373039841116483,0.00026804375015508105,-0.00220875805155445,0.0022891461457936178,-0.0019054542114486002,0.0006103630377683818,0.00022131826931277653,-0.0008218528386453019,-0.00029941699943229083,0.001291521260658115,0.0076416003333978,-0.0012983459738494121,0.0010828867681348217,-0.0016442596778703186,-5.511218150198848e-05,0.0018043313493088472,0.0026108997221532208,-0.00018613762310084792,0.004270125449781347,0.001383230666669697,-0.0006194326585537379,-0.0009396612051241446,0.0007564262700169579,-0.001812106375271877,0.001468700520988939,-0.0018413042952394084,-0.002541504207896397,0.003619921086494637,0.0,0.00022360390638906326,0.0016827781083569898,0.0,0.001245596798541748,-6.840472703091293e-05,-0.0017189132308425461,0.000989005599040389,0.0,0.0022356611485148123,0.0015510471169331867,-0.0007177289401222851,-0.001796016313475918,-0.0015198628630577666,-0.00098976806067606,-0.001857673882980667,-0.0006902514493773197,-0.0012202238516433187,0.0007494101130775245,0.0002737659494218709,0.0005106116951939644,0.004693648502642503,-0.002144048836310206,-0.0006243206110331393,-0.00028734118462988206,-0.002284165214481655,0.0017686839323209117,0.00033783431935221223,-0.0011359417081340084,-0.0026330095010393983,-0.0019467162240811152,-5.8581977217238e-06,0.0014899497552447625,0.0012523569066194245,-0.005346139729295829,0.0028335633321667202,-0.0008464498995284206,0.007047622473715632,0.003923299275549605,-0.0012458467860984178,-0.006895378693080676,-0.0030806689314906914,-0.0038100858438189686,0.002923192311369351,-0.0017911242790854898,-0.0012452559761494085,0.0025610579416996057,-0.00013572196737974337,-0.00174073158800426,0.0,-0.009456506594833096,0.0016877514757319986,-7.187506252424798e-05,0.00015131052589653472,-0.0018299953623239042,0.0017287609771853324,0.0,-0.000698623045152304,-0.0024386335592458783,0.0029653677277082487,0.0,-0.0019406637085680283,0.0007843007160532993,0.00042111337465578467,0.005019135611962119,-0.00047104823602183793,0.0025441255185182023,0.004386873436528324,0.0009992312241872557,-0.0010619256613099615,-0.0008067021756889666,6.66227226249593e-05
2005-01-07,0.005583139816505188,-8.037800514525733e-05,0.0006797519121133502,-0.0009894436815440172,-0.0036361324910784295,0.0008996463413250121,-0.004020135358037774,-0.004000602500605281,-0.00155728482601256,0.0026254583125973298,0.0044241296839903285,0.001210908425718596,-0.003601317405148917,0.0023037217448798413,0.0018872814221937784,-0.0013388510778032914,0.0007821960909077107,0.0006812938477717387,-0.002111084698396411,-0.0024964773084687857,0.0002729102092556214,0.000494482078553255,0.0026334934200778364,-0.004575445816952516,0.0019261370531865297,-0.0010277933365481875,0.0030214412628540486,0.0024441456904155962,0.001174875259293558,-0.00116345038452915,0.0,-0.0010972455863149926,0.004567144284119912,0.004481864974037804,-0.011200789341967225,-0.004660055943897992,-0.0026345824692071227,-0.003083579073029191,-0.0004782974957962167,-3.025304629801612e-05,0.0007397962556760379,-0.001654130074991266,-0.00027429951481670385,-0.0026357242741713344,-0.0016884788727677723,-0.0017370258611155635,-0.0025670026926616855,0.001957066818557452,-0.0006437139124983302,0.002615848011194528,0.002248839977552835,0.001180468682925347,-1.8567137870806697e-05,0.0011167557856199648,0.0011036275079213923,0.010327253026385787,0.0017477743448337558,0.001253661184296183,0.00560069437251689,0.0008077390247589372,5.4850404159469426e-05,0.0005769475596200258,-0.0019731831878438085,0.009990226840596712,-0.00031790733097414976,-0.0010808435763110743,-0.003449894103208017,-0.0008859222015277867,-0.00588136118345327,-0.0005244940225562429,0.0011950418561009236,-0.0014156559078085675,0.0010558397650648993,-0.006726310877152648,-0.000798264640218849,-0.002200508356254584,0.0011966044740378942,0.004087635221973944,-0.0031026236556721894,-0.0012456997109032831,0.005186612811950447,-0.0007991651306912075,-0.0027349766180157914,-0.002335981992158964,-0.0006464107777583799,0.0007138323977689804,-0.0015267996889884964,-0.00016857787615344566,0.0,0.0019496059288729485,-0.002184246318660996,-0.0007065320702676838,-0.00118909025655682,-0.0018005933897063575,-0.00928916839430995,0.0016971209754496485,-0.005108061272087781,0.0008862667451529612,0.0007374794949864345,-0.0012897502910045526,-0.0007016113113380052,-0.00011192015737238905,-0.0043986690852771786,-0.0010688695052604481,0.0005565513747047933,0.0011808240071820894,-0.003122054325418866,0.0018297117548028096,0.0010611731156943821,0.0006454920517044665,-0.0016019159546851107,-0.0018562853598352103,-0.003597417403170688,0.0026639875197541243,-0.002280609589127823,-0.002260866157373738,0.0,0.0008470519310493226,0.003348242611499801,0.002396548240451049,-0.0024070550608560923,-0.0017658619338897545,-0.001237539665673345,-0.002039140319043995,0.0034275873622217267,-0.004120921083899214,0.0022570063589289653,-0.0016556011489414644,-0.0019071843806913534,0.0007988845090244849,-0.0027583707486902903,-0.002695764438464601,-0.00031800209089134936,0.0008924618284294743,-0.0028194246400325062,2.307871721079563e-05,-0.0021523364236598398,0.0012223858865753002,0.00023509439486566998,0.0033627104979949657,0.001454304595251019,-0.00349227318345059,0.0007299937621614401,0.0005318244031803131,8.657693368679054e-05,0.0028872219712844723,-0.0016307251750657652,-0.007336871710804329,-6.666522891496812e-05,0.00044239501024785497,0.0008470519310493226,-0.0021604811894325423,-0.0,0.01003241131154997,0.00020952901634241488,0.0005941189201694577,0.0023124991794817276,0.0026305156658392565,0.0007771224249636845,0.0038493478252504165,-0.002009511094901116,0.004687212508050068,-0.003669424012875194,-0.000564352395543748,-0.002343207711880394,-0.007296904992779021,0.0,0.0008470519310493226,0.00554579806663254,0.00033724793633884206,-0.004177105569000332,0.00037957823192850466,0.00021422531459725758,0.0006473035888485687,3.066183922557298e-05,-0.00023917201392797158,0.0,0.0005477533849855413,0.001152531140670857,-0.0051542653191191095,0.0016376445729688342,0.000792021806740895,-6.628981352076123e-05,-0.0011133404961784958,-0.000641113746632594,-0.0007290482221603859,0.0017299215171453183,-0.00012904179926660577,-0.0008532686006616991,-0.002801024337693617,-0.0026571339826238693,-0.000576170779202496,-0.0015336634463276927,-0.0008422578762475824,-0.0015718369398907528,0.0004556455153009673,-0.0008949874133634707,-0.0037415722045543564,0.0005250467929290998,-0.0005094753101887046,-0.0007241233932412584,-0.00558959616590947,-0.0009734793761792511,0.0007655211291053382,0.0063788200110457246,0.0003424727254114137,-0.0013376811226368326,0.0002179139507909915,-0.002126333181478427,-0.003517448562950551,0.0026266810944026928,-0.0030012878710199828,-0.0006032213513174676,0.000618686713688786,0.0004914774079823929,-0.002058312419075808,0.0040720331153415975,-0.00193972363850888,-0.0022629645387595787,-1.2809096834631116e-05,0.00214539960277519,-0.0003806852103782358,0.002282964162555389,-0.004439099452559125,-0.001282221037227061,0.001258180045168734,-0.0032019022576766274,-0.0016186455870045927,-0.0015395524091557798,0.0012496185431276044,0.0012830459197916068,0.0014411216011209274,0.0015178592327203346,0.0,-0.0003681418681415984,0.002389081609912651,0.00017241259893564236,0.0022149804135245988,0.0018849467975084232,0.00019256512459761986,0.0005609926059108981,-0.00139170284992553,0.003166645590386184,0.005438903514611932,0.00368554482763425,0.0015847473825179844,0.00029088896362074385,0.0022954883366026173,0.0007523538071232498,0.00022712470755581167,0.004718964225769417,-0.0007817558004785352,-0.0021201364498355905,-0.00038635929433868246,-0.001996521803134168,0.0005558545349404128,-0.003112641027619832,0.0028042345732235243,0.0007213374070654973,-0.0010908968597276758,-0.003159655592884426,0.004900990905581074,-0.002655317563029389,-0.0009525996942196595,0.0025425356560243944,0.005605081171754113,-0.0026833410032290187,-0.0037270853284865147,-0.0015993559875440992,-0.0004601104976047728,-0.0005403037253118145,-0.00012271566360426284,0.0011988451547373222,-0.0008846604056550907,-0.0021008594254042293,0.0013212425814996824,-0.0033198952041626154,0.00015688779461969812,0.006120068234686651,0.0037086829327648238,0.0003810451459522123,0.0033517157811206884,0.0025060865863326463,-0.0006616215809433703,0.0009225748447320216,-0.0011839313380382903,-0.0010587490681655757,0.0009612458159592456,0.0019595453760014097,-0.0008481975699068231,0.0033649979194332095,-0.0027432458446747733,0.0014430438107210228,0.002355641668018404,-0.003580143012071268,-0.0012706707594873049,-0.0016568338292227865,-0.00288522505585195,-0.0009365598410782846,0.0011935799213693339,-0.0037898178052933056,-0.0003033945165263628,0.0075788212033594555,-0.001104449228315471,0.00016861909142412332,0.0023698979045030945,0.0025359498304256024,-0.0088853723728454,-0.0016355149744124518,-0.0004607830121219235,-0.0024750505368694975,-0.004256279888071374,0.0010884025259480226,0.001585145525095945,-0.0016195945641926035,-0.0032045547986539755,0.0030931961575274424,-0.006809925723497342,0.0006480562995812557,-0.0010531721798678463,-0.0014994998624479588,0.0016983127706012117,-0.0006377952674285005,-0.004900242306306491,0.0012099571534947501,5.7956648525635604e-05,0.0011158576594088082,0.0014141455139316482,-0.0033279797915053526,0.0018650567632542457,-0.0022801788651319243,-0.0015826897589576153,0.003042964421249032,-0.0016868310063837106,0.0029317128062327537,0.0029405151309627553,9.390993033318787e-05,0.000287667621008198,0.0037031359062328095,4.360736412902099e-05,0.0,0.00019739201404919088,-0.0011273568239853896,-1.8653517623228293e-05,-0.001129897911034102,-0.003266677972244974,0.0027067063202102903,0.0006837189576351583,-3.3187889243426445e-05,0.0028947289976288893,0.00231410354703993,-0.0033430129817846443,6.375521806279738e-05,-0.00031843094329469634,0.0004143268231617696,-0.0006997143123713687,0.0006827998881668547,0.0014935863985043494,-0.00021139230991901173,-0.0004390992386658711,-0.0003227285775818808,-0.00011499847768449637,-0.004410841322313005,-0.0012940230697909094,-0.0019497894288207193,-0.00030886266751159653,-0.0006261557649735441,0.0028004756518817692,-0.0006197591115495137,-0.002216975618889287,0.002224823768970469,-0.0007019706431331342,0.00023201919908892758,0.0020727875667426706,-0.0012872507320110904,-0.0,-0.0026723133265538104,0.013005757532595313,-0.0004523601927653699,0.0004291751137618453,-0.0032288283097244583,-8.003996395710404e-05,-0.0033786936593762514,-0.007015628607136353,0.00010789990943369586,-0.0018108707731559974,0.002730110549800036,0.0008470519310493226,0.007411748526643802,0.0029538953086817067,-0.0013860591817936123,-0.00227910403502161,0.00019892343030663895,0.00736360494135843,-0.002775572388004111,-0.0007864696251690591,0.00037853871011761926,-0.0037112899957336,0.005942452321383423,0.000696444352694299,-0.0027391695035784334,-0.004557376863672646,-0.003370225992795904,0.001842433643960318,-0.00011644415155744706,0.0006521891509126003,-0.0014815737101617507,0.0021503335451242846,0.0022271178394743297,0.00152429688909731,-0.001081086392612606,0.0007126069572754434,-0.0010851712702182582,-0.0013208618483529933,0.00039395334967372054,0.0032127592242250404,-0.00025732531791351803,-0.00018305195643785954,-0.00774508189764325,-0.006192017045583086,-0.00045666927147856656,0.004474188547797551,0.0011938338076972945,0.0021698571803911017,0.016878188729573293,0.0012606401526471219,0.0005631870508554027,-0.001310588793498607,0.0,0.0022816768378264396,-7.381085414490323e-06,0.0,0.003516663561336674,-0.001537397718769087,0.012547057188245636,0.003112306958436618,0.0,0.0033812333894791707,0.0011419032882703586,0.0007586530515427364,0.008289018290616203,7.894234843292973e-05,0.0006993837651735378,0.0013144317853316006,-0.0012138367611199234,-0.000144858583138097,0.0038749874626356844,-0.002325463368478929,0.0006183698045669026,0.0016954577763617403,0.0034615172973990094,-0.004504256216490166,0.002173795933677042,-0.003919422069288699,0.0008470519310493226,-0.00047689308669035047,0.0010788917193944514,0.0013333410644680288,-9.668729240947851e-05,0.0007187352791054658,0.0030057486867275844,0.0005637966956711496,-0.0016336035221396778,-0.00560308815201429,0.00022994042546507808,-0.0013183781365732,0.0012696701250978566,0.0013102099264945862,0.000742195637266,-0.0009145253695938221,0.0010124207540466044,-0.00045459316387590714,8.146821657868355e-05,0.001263792326536738,-0.0006074857230530617,-0.0012512298539450663,-0.001948926207975301,0.0,0.0005098963643339678,5.7273791015980777e-05,-0.002118527752452937,0.0019646680159491675,-0.0022307895051685463,-0.0020656456993981237,0.0,-0.0022864068421675613,-3.248643275601311e-05,-0.0006664122850010787,0.0,0.0023496592651348347,0.0012158978637101007,0.0007049166855661609,0.004294912108434015,-0.0019003094621001387,0.0017687841891287006,-0.002735798872175098,0.00502839477907616,-0.0015882448353571014,-0.0003910139586617961,-0.001647467213228214
2005-01-10,-0.0001685273667582415,-0.0030949126429861977,-0.019621253926908225,0.0003719718510099283,0.0011340521994158627,0.003104265670785687,-0.0049231443147682245,0.0028559965421169147,0.0005891434411560403,-0.001268984215042597,-0.000580555082569683,-0.0007722964989560854,-0.0010066885303968115,9.36775508225282e-05,0.005615717337485389,-0.0002926421347630705,0.0006234764111162049,0.003448409991125892,-0.001341256001721469,0.0015795249022791246,-1.1454997567386185e-06,-0.0008702955011039735,-0.0004745960192705396,0.0014970220911806821,-0.005043565966705588,-9.082936077489674e-05,-0.00040079711749493375,-0.0012210869854860924,-0.0030780240111284445,-0.0009468934625393766,0.0,-0.0051146287552138025,-0.008567610907374883,-0.00011816909638972719,0.002864585912882687,0.00503500582628294,0.0012866774144875122,2.8687636803237964e-05,-0.0018280869076351665,-0.0005303392947551751,0.001564050029914011,0.002245785564279695,0.005465918277679751,-2.974324634375814e-05,-0.01224441657511473,-0.0025280763051980033,0.00341641025987933,0.0015485644046886642,0.0012708096690734851,-0.0009313992716905056,0.0004880188811925625,0.0024595338541740334,-0.003562901365505019,0.0006561581245962359,0.0026160703462168216,0.0012162717271377206,0.002919870977018337,-0.0009406344357666431,0.0023823698037783916,0.0005582791125432634,0.002148928434859371,0.00014932551728967037,0.0028151879788463575,-0.0013739752620562833,-0.004045176846610409,0.005351678332402562,-0.00048008934766095255,0.001640179020212826,0.0015568009613752649,-0.004292402304249581,-0.00029364514991243174,0.0007066817908913039,-0.016760744751050168,0.0048899512281239165,0.0008025673560182514,0.0029748367918689864,-0.00015218477656064888,-0.0005615391507834506,7.328987120716207e-05,0.0011092833956827123,0.001619062547075136,0.0008712149308680918,0.0006764156699276129,0.00016373601088574084,-0.0012028930657581919,0.0007382790417850828,-0.0006469655088958685,-0.0005284634235472309,0.0,-0.0002079884278769434,0.0024985378475532163,-0.001044968365266043,0.0013255339964012452,-0.0005212715280683919,-0.005137537095883165,0.00019602006231795796,-0.00023210802692931655,0.003140931855473029,6.804359298071889e-05,0.003912512877803461,0.0008332193015813496,0.00027534473545452796,-0.0022583285670398083,-0.0026317330995672544,0.000575383987677414,-0.00277231588442668,0.0042471615090395225,0.004670687580997001,0.001691243046831779,0.0010717985894255226,-0.00019441773305091864,0.0011679167205550466,-0.002032343279686734,-0.002221801712042396,0.0012687131098602737,0.0018589774867893993,0.0,0.0018242351884084037,0.005347392886289647,-0.0008413257927054539,0.001419717170175864,0.0024881323412398867,-0.006068404410590069,-0.002258578133254411,-0.0005963821298774706,-0.0003061917310225948,-0.002946803508406708,-0.0032488032856649585,-0.0021880990888399204,-0.003258740828943388,0.002558804527397787,-0.0048592727840442,0.00018984322957273173,-0.000178012717077215,-0.0014720958365038116,-0.0006011926607606691,0.0032544094854122393,-0.00046649511941436515,-0.0005666623840436437,0.0014016363330543171,0.00034405410668708587,0.0001614816297132379,-0.0008773233988248673,0.002196043847922737,-0.0018847531100951956,0.0034454426401704114,0.0021052795738807,-0.010045165844076644,-0.0005869488723127019,-0.0035296285975528847,-0.001043573194624667,0.00031101340215595037,0.0,-0.0013952389020579713,0.0011549583989276001,-0.0011416126567666306,-0.0005203858319823969,0.0007470311690609434,0.0015471344966072958,0.0053919603586211964,-0.002719339842474139,-0.001357226725148057,0.001753443941959231,0.0019372987475961593,0.001321817374597197,-0.001917232119062436,0.0,0.000760461435205,-0.0027960466125728323,-0.001990588986932496,0.004166366337935315,0.0039734212898408046,0.0020306255756506264,-0.00027895783772578304,0.002272758977346313,-0.0029507488513437208,0.0,-0.004054582529266925,-0.0029450131675111627,0.0017245584212010339,0.00037565200019397204,0.0023803843858885344,0.0013913524117809657,0.00162301277684697,-0.0009280004610676075,-0.0010607335467755718,0.0013680510177468714,0.0009427522758298778,0.0009121805561413978,-5.54171172292791e-05,0.00010392730198231036,-0.00025345112203664866,-0.0013399855842131545,0.001722555071109053,-0.0018635552581482062,-0.0013565539356694106,0.001202697679423883,0.0007800939465998134,-0.004566004804174543,0.00014882275222124472,-0.006443517350470026,-0.003548705127692285,0.0026104289162398983,0.0023069995373470524,-0.007820925624919888,0.0013861212366897686,0.00249630250672249,-0.0015089090140849863,0.0007282199181005619,-0.0016638333457832406,0.001794038255189464,0.001463220010184108,0.006096697434961044,0.00406364328890925,0.0021987480451285094,-0.0044916724655799534,0.0002984221984465097,-0.000334972340437205,-0.00028092638938320474,0.0016170127441637217,-0.0008181749097515618,0.0021462174436134174,0.0005986949806044256,-3.464847708099056e-05,0.003651848086740765,0.0011106847365443177,0.005510275440328777,-0.006612937964190693,-0.00168456301939895,-0.0028673759647723607,0.0015585283135677354,-0.0030030701036173925,0.0007519204933445036,0.0,-0.0024573860516785145,0.0007862067156825103,-0.004396830095879999,-0.003703717421058587,0.00023735212989385774,0.000995893738125509,0.0009955015634594644,0.00211820638229552,-8.226040396335425e-05,-0.0015485126466787287,0.0025499074674228675,0.0001588558271138197,-0.00033589549355748623,0.002274620839048238,0.0008148752522325948,0.0005652174179597021,-0.0033361775813326583,-0.00023601898284311435,0.002229577703984054,0.0017132841776298156,-0.0013420289150775908,0.0014960428717456585,0.0018588629999688,0.002256937486760077,-0.00024712009279947224,0.006219924341307713,-0.0006385865223216393,-0.0045181304972155695,0.0010724549096650861,-0.0007220446884917826,-0.0037780768626267756,0.0008343029628261715,0.001298279674381875,-0.000520343200446894,-0.0020775291765493197,0.00135282262400234,0.0004422489920246399,0.0006276281298753727,-0.0019096484479946372,0.0008598691158927547,-0.0008499115985402353,-0.0016599066128884332,0.0018029290112017155,-0.0013833035817597881,-0.011734231323388083,-0.002410360618068361,0.0004708448443922302,-0.001703172039307623,-0.0015946811044603615,0.002705151484837816,0.0025525086525093076,-1.94162376673215e-05,0.00034450186482249296,0.0011378839718144025,-0.0003153375677302305,0.0013273918826826891,-0.0009292365655620133,0.0020548832639620644,-0.0003366742589644734,0.0017089303785624936,-0.00278833318219216,0.0003639024643342597,0.002231707383659643,3.033369658961467e-05,-0.0006480800886539488,0.001968277064221242,0.00029997262566604303,-0.0028511636835428724,0.003099045487478429,-0.0031226844225541936,-0.0013199286345988923,-0.004283807721932923,0.0015868770682041142,-0.0005003430026782161,-8.479752136533945e-05,0.002947548813028097,-0.004256965112372165,0.0006309400155118086,0.0003896610618624792,0.003147550794632,-0.002066597058325382,0.004463567324086239,-0.0015575656175486892,0.002647920619950911,-0.0007247475907328077,0.00036667018023127385,0.001042244284605586,0.004990930274710464,0.0016910178481513252,0.004001102938169377,0.00023356978967156873,-0.0005208413109322458,0.0011552411012313707,0.0001455656124009657,0.007460635383133,0.0029353744049348987,-0.0007630942377426447,0.0014544068887164254,0.0051110394264488115,0.0038323337958047826,-0.001098665631329078,0.004653034843158342,-0.00040079711749493375,-0.0006274679700270815,0.003285969637581898,-0.0009879789812303028,0.0,-0.0016683820957050404,-0.0008673102622890432,0.00100509979386893,-0.0025972572452065985,0.003884681836519316,0.0004999630719681159,-0.0009019044274893699,-0.002545990349884135,0.0017670770488776933,0.0014878600863178952,0.00017301525586856732,-0.002642940982807623,-0.0003391496229334791,0.0010789088125830212,-0.0026852141079225663,-0.0005011723985872687,0.0004579778441705844,-0.003167247860611224,8.047989425367821e-05,0.0024138446133881086,0.0022343703861176407,0.0013507173106830793,-0.0002770752123814239,-1.799998369061973e-05,-0.00040079711749493375,0.0012003527757392834,-0.0023170799001252457,-0.00040079711749493375,-0.00168594341140688,0.0007302629347033207,0.0030644377763728325,-0.001650329390630741,-0.0047088276635946615,-0.000339145987140057,-0.0,-0.0017515858276535559,-0.0026071517467317405,0.0017997312634016013,-0.00199847880026645,0.0040757247890805025,0.000276670921982969,0.002272068691095052,0.0061905679458657634,-0.0006578569099654986,-0.0036748243323632317,0.0027727756176485134,0.0006891888932969919,0.00010574240276628306,0.00039484628627176,-0.0009898864101512775,0.0018609002145088453,0.0013900060998271674,-9.148643755086883e-05,0.0005176173122894259,0.01324702651941824,-0.0017541650497853011,-0.0057335647535091926,0.001222972652290989,0.0013791219863257878,0.00039983265843361696,0.0006409613021885049,0.006399619213499689,-0.0011784181598877028,0.0011635406446751158,-0.0010366448602783015,-0.006487315850399303,0.0009191719487242522,-0.0016137876165117197,0.00019361309143106016,-0.0015693152910133058,-0.0023704008471580446,-0.0002545830540694468,-0.0011668062150566678,0.0014800788549164954,0.004120681692689894,0.0013348272775829068,-0.0012184631577861669,-0.01539096423559281,0.005368559747789979,-0.005551835737961317,-0.0005718724298612183,-0.00025965711641743076,0.0017694470134293223,-0.007347496373080768,0.000756753982642453,0.00033426662642026733,0.0015591181824026054,0.0,-0.0035808536776476313,0.0014074748625179595,0.0,-0.006143157609587649,0.0025427195162278635,-0.0032314179613593622,-0.0024372451152751794,-0.0,-0.01085547040024568,-0.002006497945971358,0.0008842739837410637,0.000856224652563535,0.0017055946614630507,0.003479854705967361,-1.842224857252847e-05,0.0015706832197089427,0.0008068982813594181,-0.0019048347452367768,0.005290851909052631,1.691319436831548e-05,-0.0017902716016825729,5.065265722007764e-05,0.002284497095278023,0.007219087426776458,0.0017006777711339282,0.002204860139546105,0.002818197620544534,0.00010405342024020585,0.004199306803016858,-0.0005098377618664403,0.002445486625048091,0.0005749590618258915,-0.0006981787540132048,0.000854895876908057,0.0004507774254141747,-0.0017562026825358123,-0.001019938430594687,-0.00359473405449747,0.0005334804266700126,-0.0027108376395854213,-0.0002275096524759291,0.0005609811495820609,-0.0008142708016879438,-6.181006306434923e-05,0.0005636371064621472,-0.0028306885725868846,0.003729597384722996,0.0028986884905709987,0.0,-0.0013157869674507697,-0.0004651042872298994,0.002494489076774019,0.0008820263316207073,-0.00010776824179115944,0.005457864905288264,0.0,-0.00028473992169032497,-0.004527827557105794,-0.0033171694198866424,0.0,-0.002088051001420895,0.001105074259238682,-0.0007133051306431457,-0.002641176073938575,0.0013373166946465632,0.0010549450059182646,0.0014691046583074749,-0.004349612330802829,0.001071939615356134,0.00601924498428838,6.324657963862136e-05
2005-01-11,0.0023177748123133853,0.002910768801629294,0.0021506387724273806,0.001083615463891704,0.002324991542858986,0.0004544858644360323,-0.0013841321437567944,0.001394612152335435,0.003002494703719824,0.0009077715665163743,0.0009102246457243688,0.0020869722180973478,-0.0010155073660510702,0.0009043744824860596,0.0015293259139736541,-0.0012117477807710064,0.00024398002964802262,-0.004472723012987165,-0.002534553894249041,-0.0019331246548405965,-0.0026880753558065234,0.0006312432150844552,0.003351368567669017,0.002593404833986791,0.001503035722816605,-0.00046419803579619926,0.004085611219111646,0.0007685237415674328,-0.0016025059985753294,-0.0016274299686778874,0.0,-0.00645974067318688,0.00397357169032126,0.002449091387240469,0.0006200772188355799,-0.0017068064575037755,-0.0007143163196001933,-0.003066155779502812,0.0009066002507548707,0.0018959689880754162,0.0005104513274197271,-0.0007133384865671586,-0.0020138987056741685,0.0041318301587287675,-0.00670402348181932,0.004550860811187339,-0.0035176993405665814,0.000562065074590671,0.0014895599258622774,-0.0017843861561889771,-0.002309442081724516,-0.0021060893654091376,0.0014429465459509854,0.00037940041859885697,0.0004700457879390443,-0.002565154377145573,-0.004650546294797341,0.005201618640258617,-0.0010762182186039816,0.00368465027471544,-0.0033971882219752864,-0.0005132424784150444,0.0005905566668749223,-0.0017240738727129518,-0.0017307649162976687,-9.887451297312001e-05,0.0030729468756304653,0.0008431112587847133,0.003280148285416479,-0.0028828700853280025,-0.0013886321393084564,-0.003548305093329609,0.0015482923161048627,-0.003850458698297564,0.001182884432068137,0.004457449411979298,-0.005001808716877379,0.0008250039414463995,0.003044190436729386,0.0027076480924049656,0.000994557404273482,0.00020210124952630762,0.004034994270963755,0.0034296959042926624,-0.0012326837471503716,-0.003569743954775484,-0.008886733517290362,0.003304867815860136,0.0,0.0007111315531049271,-0.001622871183694853,0.004229531460225526,0.0014039275346091162,0.001374502770882678,-0.009864362300975862,-0.00677975034648984,-0.005762691122736783,-0.003131434940940117,-0.002827730713953019,0.001083615463891704,0.000856166686174244,-0.0025450628111251526,-0.0012569947927310544,0.0015629946937587857,-0.0005073492444800261,-0.004079619194258016,0.0036011368182797764,0.0036297374983261716,-0.0014594142863934246,0.001083615463891704,0.00041818173597201684,-4.31457438484986e-06,-0.002368929350429087,0.001688218829184714,-0.001228758115853721,0.0006010098153105716,0.0,0.0016034763241514994,-0.0002252773818114408,0.0019326270394829277,0.001083615463891704,-0.0015396557937080353,-0.0002554296808524909,0.004719545164953521,0.007371814064505604,-0.0061992059147282855,0.004070823799547628,0.0031233577504577712,-0.0016295313726339667,-0.00036415048280712055,-6.19194186353568e-05,-0.00020429436262935031,-0.002686899253882408,0.0007068414510211838,0.0021134921570062125,-0.0022109691785911494,0.0022402600706584153,-0.0038614527045970227,0.0001236237252535272,0.000287372316088958,0.0011396863075275817,-0.00884700748642182,0.001909960397468283,5.245212505698946e-05,0.0005495584083114141,0.0025775138715938084,-0.002685873886651537,0.0022507782035214845,-0.000765530217823475,-0.005042842294787774,-0.0017062727982079472,-0.0030478346261573236,0.0,-0.0006615749970458035,-0.0011826286529561941,-0.002185554155763482,0.001083615463891704,0.0021032611104997967,0.0005899303672375051,2.1512957313535457e-05,-0.00016779183011615936,-0.003147683863060016,0.0005476356090113956,0.000476932076413779,-0.002924545380800415,0.0022964133350581502,0.0,0.002585009003728009,-0.0007320458707653692,0.000752020191511587,-0.0008272763012740751,0.0003369552227287027,-0.0006459531893325598,-0.0005648010415552591,-0.001220303406685376,-0.0024818427812034224,0.0,0.002821978095986705,0.002442787137867995,-0.0015631379157823972,-0.0007418247133809627,0.0024069846782917253,0.0006630780317694523,0.001083615463891704,0.001083615463891704,0.004705429682326097,0.00064014949463371,-0.0010726409972913562,0.00046479224212329153,-0.00015195279998708706,0.0002126011595334123,0.001829595084797113,-0.0028307918805414757,-0.0008402071118241952,0.0008962711632195979,-0.0031793852246845148,0.001720656064353226,0.004034091282918795,0.005265637600210568,0.0010076697687211886,0.00028346369712738747,0.0008691391951232845,0.004415754686529576,0.0011312323219176584,-0.0005068170706928777,-0.0013716204500298802,-0.001252618070244103,0.0030500521164842516,0.0005971113911610017,0.0029902657225757885,0.001740840923258013,0.0020227268417187245,-0.008877087105328283,0.00039871347866176813,0.0019279572194742,0.0024723302615644867,-0.0012543728231082082,-0.0009226818806152052,0.008287360336672447,0.0001778583275098146,0.001083615463891704,-0.0012277708313202472,0.0019026247275385703,0.0054153714344764925,0.0036117297815077406,0.0014501374193330503,0.0022826933858399426,0.0043642739269415505,0.004783036260572789,0.00028153077356131456,-0.00956904609202794,0.0005861578159087041,0.0013494989862109794,0.0,-0.002116209889477818,0.004383846542233017,0.00018905829828053423,0.00021926622663556364,-2.7027130559884563e-05,0.000502769398625312,0.0011171803377321194,-0.0009985918434318986,0.000411300069661599,0.001635125869296191,-0.0017967075751164664,-0.0007928736149285508,0.001083615463891704,0.0036924667331429952,0.0002977222490522748,-0.0009104572374358526,-0.0027193368838228605,0.001242764625226446,-0.005968723169803196,0.001945761363858501,-0.000886643092926217,0.0016023379985317793,-0.007614415243708751,0.002261390936475753,0.0013051053086567507,2.6363151456541415e-05,0.003150390216028821,0.005352901582520232,-0.0005846691601666441,-0.0003401219542967633,-0.002439423623517858,-0.0014752514042607216,-0.0008424405438685499,-0.0007073108257985465,-0.0042612474360733685,7.187913397728803e-05,-0.001114578678299371,0.0013053631443108807,0.002048793492181743,-0.0019958952896072693,0.0023103887940752487,1.3648853255818996e-05,0.0001487523305460117,-0.004221922072810564,-0.00022752248103217608,0.003121970173819161,0.0026240924681954244,-0.005464302610619399,-0.0005535908181206002,0.0016600124562289422,-0.0036461843797592425,0.002191234356619522,0.0003621890643669714,-0.0005459647636091309,0.00017552761073122165,0.0026827614683037873,0.001187524604287094,-0.0023816274148580198,-0.0013723043105007802,0.0028437161202850073,-0.004804174531051944,0.002303574863651743,-0.003279382890198239,-0.0001397822149160195,0.001620157407193533,0.002976948763504735,-0.0003771418260985405,-0.002196636213143509,0.001897946356488216,-0.0039940519414514404,0.0017024859188112579,-0.002235584839772666,0.0007155324644307359,-0.004411555541757027,-0.0033443917559657995,-0.0019447650090528357,-0.0021000041611368135,0.0011292905832127398,-0.00015884658795686703,-0.0019447632412615875,-0.000514192014231974,-0.00158988100249916,0.0017506254306374723,-0.0015340797206035417,0.0006934385698541583,-0.00040378290357736684,-0.0022587693752638615,-6.305246056666516e-07,0.00045191694715247447,-0.0012634357760487156,0.00010142958656313317,0.0008519788047220361,-0.0014443704292173424,0.0017078958305014537,-0.0022134972998054422,0.0027143214305916947,0.002271259294518049,0.0006323921496191952,-0.0010062615644619076,0.002012359333232885,-0.0019635836923714693,0.0005053181254965895,0.001083615463891704,-0.001330371708496361,0.008589940959468512,0.001586862717089835,0.0,0.002757914078148333,0.0007841506228858576,-2.5033741425651538e-05,0.003759661452005928,0.001083615463891704,0.003067966936988484,-0.0002665718239266824,0.0011405524499483314,-6.23436236474499e-06,-0.004025526647238177,-0.0012092319087684822,-0.0027319750688985516,-0.0039754393411151,-0.0015326506608161746,-0.005280138905890014,-0.0002732693501385571,-6.821592307765728e-05,-0.0009214617459075179,-0.0003119373878825571,0.002057761607256717,-0.00037936650618662377,-0.007963288653795579,0.0007251848941904572,0.0052096270524949985,0.0027119726152507947,-0.00015094833703669663,0.0006094078373617048,-0.0018627757529425782,0.001778177637495122,0.0002857178598356441,-0.0014827912290010516,0.002044143793949399,0.00016302924724304751,0.0019752400461681605,0.0,0.0014967908141563417,0.001309901260780576,-0.0022665407977519167,-0.0029283563911317646,-0.0032093396496034824,0.0025405025787374035,-0.004218869995953082,-5.670291784469839e-05,0.0015177204144322474,-0.000657927407543598,-0.0002449408728465658,0.0031965278265011915,0.00141074637693954,-0.0022759525310376756,0.0027833741558777004,0.0036001160256112445,0.0007763702708100019,0.008940628459136395,-0.0004709063537962354,-0.008889830860869507,-0.0026139423526842136,0.0006026902945812832,0.005814681355435376,-0.001421496267240906,0.0022031765666464024,-0.00487841773528011,-0.0004809738703013279,-0.0009499381399235367,0.0012734850745737077,0.001083615463891704,-0.005615992991743995,0.004102834338816198,-0.0009374685752351595,0.0006235825836482216,0.0012915976430709106,0.0018696871564976376,0.0003768484124181428,0.0003469062669845077,0.00015142250180014634,-0.002964940162045277,-0.0027244008238741504,0.0011359622142352067,-0.0008352770396671008,-0.0016150084350893352,0.002659245955151978,0.0009185943289059264,0.0009473091490961121,-0.00498872117038358,0.0024759532086833726,-0.0019326069275217236,0.0029123436082892336,-0.01010540246969039,0.0,-0.0021185433523340097,-0.0024845877620751217,0.0,0.0033850150136699305,0.002117977333838464,-0.0023469418669525752,-0.0015984667181806738,-0.0,0.001083615463891704,0.0008917454659583733,-0.001719620633519336,0.005655346456060418,0.0006281666306289939,0.00037633494398364226,3.699459615490259e-05,0.000529547961594094,0.0004636799233419917,0.0012281141029535818,-0.0024263264478383445,-0.0008031895643610676,0.004530072793457288,0.00010092212639794489,0.0037021962334867118,0.004058961408972013,3.0891650341880633e-06,-0.00041049935214221723,0.001083615463891704,0.0007173621586458699,0.001836182454517675,-0.0016084336513841934,0.0017968018879600206,0.0002013079441894624,-0.0019227551718516132,-0.002434569873186806,-0.0019777667786132526,0.00011957408407750801,0.002521577876946452,0.00207152295583437,0.0035399491286727375,0.00022374341032390058,-0.0013154004576685576,-0.0006813014064151563,0.0026103239838944333,0.001247427109961872,-0.0039723127245433485,-0.0031418871446800027,-0.002343459180818664,-0.004654239694803935,0.0,-0.009697984326736018,0.0005878454895454053,-0.005065782746586233,0.0017947597865038047,0.002357569542796481,-0.0013949624281012355,0.0,0.0022000237781318655,2.744606605999346e-05,5.499614766208813e-05,0.0,0.0001436074570858614,-0.0024261041158929685,0.0013181841776797572,0.0006177921531161863,0.00011148960475659057,0.002496542306573071,-0.005400807808399018,-0.0014671968449757589,0.001027905636904809,0.000926732086166877,-0.0013521874737891365
2005-01-12,0.002493745193975955,0.0047078472500556015,0.013169164080389685,-0.0020179414369886064,-0.0003410743342228297,-2.3441917215601005e-05,0.0027447064574777406,-0.0012546448030522456,-0.0034210383565817155,-0.0003171902388382407,0.0012654185427257794,0.0006737031763976979,0.0017641854297984817,-0.0018945425688961298,0.010927428753890021,-0.0004401006056133856,-0.0014638895309248962,0.0009833345680405144,0.0005974446107246448,0.0012196624976448338,0.00019444738436735998,0.00039904489450243624,0.0014960159577997662,-0.001843794139257702,0.00723325266791867,-0.0003919408257034367,0.002886535380635612,-0.0011806302709496598,0.05857689804281249,-0.001968408389793929,0.0,-0.0006090551278783865,-0.0003676186971900292,-0.0019581564671691544,-0.0035448102082206376,0.0008213577220764411,-0.0034484723277608807,-0.00039792805568406725,0.00267083506529799,-0.0036926813644799186,-9.144712603372242e-05,-0.0034407083339436308,0.011949953449395622,0.003697921620495815,0.0019652068534021863,0.00047398672936066564,-0.002480917727897581,0.0006651188382617088,-0.0004879752397872911,-0.0006298345025171385,-0.0007443238039942877,-0.0009073433974832516,-0.0023054663213978154,-0.003302745824925068,0.0005198395477612427,-0.0024479447784413444,0.002583893070383624,-0.0018293878841842773,0.0006014374968444052,1.4152683790023526e-05,-0.001097533065995912,-0.00046399148860685053,-0.00019058284923332045,-0.004171807931856157,0.0020369583527278527,-0.0032646981828372986,-0.0006309701877509014,0.0010243106613670456,0.002657580388458996,-0.0021669797635587504,0.0020253779726135436,-0.0026621108055689237,0.000770847213701937,-0.004303102292548219,-0.00016723547896536122,0.0010783842788354976,0.0012261852319904363,-0.0008593910884419088,0.002281445236057956,-0.0008946904002432399,0.0021525672734508715,-0.0005152179245611581,0.00047911220836522066,0.0017092907765955331,-0.00152375799158583,-0.0037291334397677287,0.0034025569567112486,-0.0009039373722351705,0.0,0.0010553996834795959,-0.00047799134131447856,0.0013632887784405829,0.0012722114464856216,-0.00015163065829705802,7.042642327554216e-05,-0.002912703784774049,-0.0026078335480145256,-0.0010492043846422525,-0.004215303247652259,0.012250786387719488,7.319876221234418e-05,-0.0013054289000148146,-0.0010552361520594037,-0.0014638895309248962,-0.001425193220543699,-0.0013948736240885049,0.0017401036148638597,-0.004489257037272444,0.0012547917257494283,-0.00039022892065219695,0.0011638886927454702,-0.0008511393837557111,0.00021221282114472682,0.0007771213896474047,-0.0013834639420700753,-0.0002111502640595856,0.0,0.00017677420349655607,0.005568678529572453,2.698993501242784e-05,-0.00048380466589359656,0.0011659462594054368,-0.0014638895309248962,-0.00010904159177679562,0.006660498166045372,-0.0012648455285968689,-0.0020684761524116914,0.004088386799286189,-0.00014974246790501813,-0.00694691945283041,-0.0015530447835199101,-0.00031049034651701654,-0.0005175887134390225,-0.00025506575298672106,0.003188618066648586,0.001893907194896938,0.0015751519507210374,-0.002079642140783483,-0.00806359768681932,-0.002178343918517853,0.00031768596923330874,-0.0013460936022763833,-0.00299779382878514,-0.0008750979113079332,0.0030130453097647306,0.00029988622325937433,0.003245351926596185,-0.0012197710521421935,2.8635858687621262e-05,0.004197118413151309,0.0001926327062528933,-0.0031705881289920443,-0.0,0.0038149237231130113,0.0004233805529065571,-0.0010414326094702587,-0.0008365871605243323,-0.0009606652045733554,0.0007543864486100093,0.0005859712354550578,-0.0015149318536246761,0.005051447355931101,0.0005502697538343246,-0.003338863446928677,-0.002980947883625043,-0.0001498940136159199,0.0,0.0011855623403605868,-0.0033183897337604627,0.001427449989023254,0.001282481328362479,0.0054045795670375485,-0.002102480952686322,-0.0009374227236845835,-0.00021985714496036593,-0.0009831100651807466,0.0,0.0004286760137129041,-0.0023052341878453454,-6.358345457895188e-05,-0.001031979546657062,-0.00122441661952575,-0.0015179577298338254,-0.00015408043593444364,0.0023898123423349536,0.00045066026107405807,0.00032972911761894037,0.0015797409046625817,-0.0023787281365198138,0.0011982851820918172,0.0011625412461890498,0.00017198226203076977,-0.00012927676080541606,-0.00038171310769940614,-0.0013515548449709886,-0.00153177925515563,0.0017934708283652175,-0.0009425714404501388,0.00031267169061421907,0.0037297425428883643,-0.0009254266254276206,0.0010436110236800747,-0.0012255158076057721,-0.0018166513847989241,0.00032323537830481397,-0.0002897371984094206,-0.0005865986088740902,0.0024746414305955597,0.0003056414130085108,-0.0009923202538501944,-0.001686156169378375,-0.0035855191274529394,0.003199480064167229,-0.0017098166619839554,-0.0013690752162725686,0.00023280702450663158,-0.0009696190080200573,-0.0002405876141725096,-0.00014356036673990886,0.001549212825992036,0.00034383498072787093,0.001971701315986741,-0.0007914390711515929,0.002988582482434573,-0.0011355575933195323,0.006911659739574416,-0.0006251684238041127,0.0006728172245161171,-0.00019736730252382093,-0.0034534397100171306,-0.005429635859185437,0.0005023914064021738,0.00016615030868325905,0.0,0.0011617069885122063,-0.003773683205519688,0.001944108809132377,0.003188259251266774,0.0011349433446771592,0.002013591263879209,-0.0008238196959141599,0.0005334287430937107,-0.0006091615246930155,0.0025159778602652336,0.002874439691071067,0.0013685146360398134,-0.0017453202849370736,0.009607689840946272,-0.0038817048623616935,-0.0006642566455463681,4.4925327083851615e-05,-0.000747202473370727,0.002716193128090924,0.0007534457931090256,-0.0017019339109637366,-0.0016719990272236606,-0.0034676427820859975,-0.0016771891131469672,-0.00019812166343781586,0.000621018272869009,0.0008711717893573593,-0.0023866531761024394,0.00024100793732641514,-0.00018952465160176272,0.0016639001802595675,-0.0006876175328970989,-0.0009726492951953137,-0.0029092141233419684,-0.0010885267611808497,-0.0023709372640492257,-0.00023074615519236725,-0.0016303048573224192,-0.00015550072580734815,-0.0018266181864325399,0.0018644117685851366,-0.0018808425570273374,-0.0002310067428114312,-0.0004330966411884255,0.011059788744424238,-0.00023019708759402174,0.0007279562361848643,0.002662322383821961,0.0020508189522303825,0.0007528799836101829,-0.0014244361894612753,0.0016513634535882517,0.001191111486963459,-0.0013425403951611804,0.0005354302292265575,0.002663480042698335,0.0007807322407696051,-0.0009511512910403313,0.0005340319236525272,-0.0007110696391687721,0.00036701851916520864,0.00015145790383698697,0.0029082313941262996,-0.0015886878271194587,0.0006870118375846524,-6.930303788730405e-05,0.0013374931044659293,0.0007376041679752275,0.0016274925247842314,-0.003567401312494388,-0.0028997564705812123,0.0007482260716679179,0.0001910853931947438,-0.0014638895309248962,0.003129047928142413,0.0009387163543508987,-0.003125298432477517,0.0009910606109733043,-0.0008653132289283007,0.00044150759134119487,0.0048179564515667735,0.0021712602400555427,0.005358118505986086,-0.0009388230446738887,-0.0014638895309248962,-0.0006644723880516118,0.00014108198145860475,-0.00486511624474121,-6.445013905098334e-05,-0.0009403348031190567,-0.005757991653700952,-0.0038616436261945174,-0.00037628316504664263,-0.0007272509255138417,-0.0033716483056383147,0.004075720575773941,0.0005587971156632297,0.006504883773390831,-0.008777689115987834,0.0008070845847486648,0.005703040232395545,0.005599113355116097,-0.0008435730668903786,-0.0009739963202909755,0.0012139927541367352,-0.0007836753411375067,0.0,-0.006566460042916027,-0.0011679030101878697,-0.003757256623617378,-0.0016377635706651206,-0.0012995974717949985,-0.001607987563527496,0.000694696276623177,-0.004134785542965695,-0.0026613845257324417,0.0005086160690563145,0.001945477992147069,0.0005451309347939612,-0.003302390457312127,0.0007752866313587462,-0.00022692483080130073,0.0010516134882693929,2.702369993718052e-05,-0.001219288238783399,-0.001724131580283489,0.0017648635179879591,-0.0001224226065940194,0.00044774662387884367,0.0029302661012290273,0.003438887277953792,0.0018970068927284811,-0.0021602955304553524,0.0001858987633240629,0.0010491522078513445,0.00048597678766286364,-0.0030287310504818264,-0.0009028323555137626,-0.00046566099562658027,-0.005867214812537673,-0.000873584220147671,0.0,-0.0019425083020990705,-0.019539268001742643,0.0027811458859967027,0.001512974705065043,-0.0016444057170997564,-0.0007385141891728959,0.002736365765502874,-0.002315398906236744,-0.0007928404773858957,0.002561391393714201,-0.02917704803714988,-0.0008468701790076483,-0.00028533655009223134,0.0007123826711680287,-0.0017719301657006122,-0.002226120877510195,-0.0007274767075948566,0.0002810445466062408,0.005292749362824151,-0.00043545967255121206,0.004077421324786212,-0.002111430160121702,-0.005129536936312232,-0.00018773261455602903,-0.002865446798335873,-0.0018438018902419962,0.00015122602635593904,0.0029306192860199384,-0.000651622550123438,0.00018866848869774556,0.004132040320656991,-0.0009640180213617117,-0.0011864512154579306,-0.00167055091211724,0.0004096575954867858,-0.0032381930907512207,-0.0012097450409504075,-0.0014638895309248962,0.00014409926802486523,0.0022388730671349436,3.164167189837158e-05,0.0014170626930013355,0.0022426132313753994,-0.003486318009305742,-0.0012602264595895762,-0.0009187584356935747,0.003706042252580908,-0.000396302877523914,0.0004747398724337747,0.000907443567998594,0.0008380122304202363,-0.001767959537746351,0.0,-0.0014638895309248962,0.0007107562413890338,0.0,0.006300220259245151,-0.0005290803254194736,0.0007056908438145065,-0.0001608221535536864,0.0,-0.002118628266480847,-0.0012563782865972965,0.00010781998815044232,0.0044022944237206135,0.0014411808603919,-0.001067107768957215,-0.000580915918398394,0.0002580671029815162,-0.0028873454658357458,-0.0021132498224258316,-0.003021266882930303,0.0027524454975399624,0.0009707378126248849,-0.0012678627701107983,-4.772138819501722e-05,0.012330989170869442,-0.0012285874640102258,-0.0021330694339380903,0.00016397945646233272,-0.0005862466616564044,0.00012292849150986158,-0.0017460062645360457,-0.002429485596671449,-0.00027677170327786686,-0.00048753623200903563,-0.0018843659607104542,-0.004291608247743146,-0.002328338684303233,0.0003774398273870003,0.0014372633974811598,0.001062880777383443,-0.0016289418060477369,-0.006737213824251788,-0.0021210159883343215,-0.001584164262631103,-0.0010204948929922995,-0.001997544868938684,0.0077022222655263465,5.797158465359123e-05,-0.005194340258462346,0.0,3.717499392756349e-05,-0.0013523941568185198,-0.0017552678207570628,-0.0026669039033422495,-0.0009086812805798721,0.0021448622553465434,0.0,-0.0010936883333051825,0.000699583858423642,-0.0012470168183654519,0.0,0.010941759655312402,-0.002242920828662375,-0.0009814450747127116,0.0023891664862821537,-0.0008676295454311343,-0.0018901717956411642,-0.002574119864583164,0.0027036299226940283,-0.0022058528472317642,-0.0016050111221387808,-0.0004923526275870886
2005-01-13,0.0013780695422060136,0.002689740678507738,-0.0019272001743819796,0.0010115735445668309,0.0005549086491972722,0.0003895264255292904,-0.0018843664296510506,0.0009542644441756493,-3.1898885980857905e-05,0.007266213748715168,-0.002112325667308563,-0.001871704481172573,0.0024807953809480765,0.0030603412522561073,0.003888963938681203,0.00029324940993076374,0.00018258603565069045,-0.00440934308081407,-0.0018983249817461718,-0.00011167326737108546,0.0012221043588613258,0.0022771390336490433,0.001269985932820645,0.00301484429822527,-0.006508003058567703,0.00024036002184312866,0.0014449661672442408,-0.003999418033991949,-0.0012412652450581587,-0.002607972507345385,0.0,0.003050088163533473,-0.0023399732109323176,-0.0021678322446331043,0.002770856031888031,-0.0006164080371735768,-0.0022699016058309028,-0.003020586002335165,-0.0016994853670181198,-0.0013893484518507002,0.002713169312281517,-0.00245441044289219,-0.0014322585667464489,0.0011489732360555705,-4.326102716998085e-05,0.0001840031122638819,0.0020404237516075878,0.0015719147677437468,0.0010861008848668018,0.0010861008848668018,-0.0036775224287904904,0.0016603105126061554,0.0026666827266096306,-0.002621240632125017,0.002460503811026434,-0.0009139587270044366,0.0007660237356328151,-0.005350518139930348,0.0019500800800080302,-0.0025597676653351794,-0.0008002682425326499,0.0017169737736354802,-0.0017993763593298641,-0.002406515208223044,-0.0032172715984916376,-0.0044131834702205355,0.0016763364956196645,0.0015497622251527112,-0.0010830963987136263,0.0007196754572129353,0.0005583230655331065,0.0009453091325850958,0.0017507814793218403,0.0014051139367785663,0.0023822903740607216,0.00370035436627919,-0.0009020477713942863,0.0009985671269678478,0.0025361105395140934,0.0017582420782315507,0.003163365684861703,0.0005620209478328345,0.002343724909982649,-0.00159101010843005,0.0019328631178269805,-0.0011258676220040505,-0.005514025201141807,-0.0012783393424043333,0.0,-0.00019487215133777344,0.0005670591853984551,0.000931754830786205,0.0014295518650673188,0.0005886331959203811,-0.010637253168826043,-0.0022767849199530703,0.0001485649022879709,0.00809478052947125,-0.00294354807589806,-0.013426013804245749,0.0024478112686622403,-0.0014034503136995825,0.002114132613691234,-0.00017340359466151302,0.0027900727594942637,0.0012162358212405575,0.006519488889551174,0.00033959412898278753,0.002599472490896336,0.000882329140685759,-0.003411633536951252,8.546975295762556e-05,0.004152392178820067,-0.011944315136478928,-0.003130873847947128,0.00012706681408151133,0.0,0.0012349773554104044,-0.0011932045209340418,-0.00012620494416730772,-0.002276812071241902,0.0014754887024928096,0.0002508460998639365,0.0024352235996370946,0.0031274305426328467,0.0002596417447948393,0.0005177727622109309,4.331735267004645e-05,-0.0005212917852710276,0.0012241877461632376,-0.0034977180699394105,0.0018662602422297332,-0.0005763782392964262,0.0009942295505077857,0.0012965121586565528,-0.0004787122698940393,-0.0012547980063078049,0.0018753686404051981,0.001020380565828585,0.004711045910676205,-0.0056351144231634774,0.0019195816440195767,-0.000311151759885632,-0.0029658306500329017,0.0018034486607050935,-0.003605287478631292,-0.0018594947639507071,-0.004201366793372204,0.0014907300962806263,0.0017532432593013157,-0.0010096870612880816,-0.0006830027166235583,-0.0,-0.0038827225761541902,0.0016625205513281498,0.00038802086556814194,0.0014806784111045053,0.000768946058906943,0.0005225824253387623,-0.0006542327328736907,-0.00011438022190041239,-0.0012840101822031906,0.0010861008848668018,0.0018506731815760092,-0.002050677350237404,-0.000159483950808637,0.0,0.0012809192394388357,0.0037952519040443857,-0.004575959367079961,-0.003303772057330002,0.00043503423029817457,-0.0017573856970290007,-0.00024036437412648846,-0.0003490164127626907,0.007027293163383302,0.0,0.0027331849887820337,-0.0035063700613617685,-0.007300512806231253,0.003215784642673928,0.0008601603717413839,0.0013402909403526226,0.00035637254115109684,-0.002232779814183547,3.841505399466377e-05,0.00307406035985082,-0.0010940994695521297,0.0014543013511961339,-0.0006537570472171004,4.2469439427762626e-05,0.002212823258468791,-0.0036206034060394508,0.0007850760853290616,0.0008212809601125861,0.0003802675197860402,-0.0006237185745552913,-0.009710241010556023,0.0023990479735803653,-0.0011545211873193744,0.0011708840073988776,0.0001670782262069853,0.0014234544250557974,0.0006700885439900158,-0.0009688934209246485,0.00037805462179399147,-0.0003667090269766401,-0.004401399296246471,0.002953683750390018,0.001828388416861265,0.0006668195340761489,-0.006441314564182104,-0.003763666513640531,-0.0034289182521771745,0.0031535933840569005,0.003592202242585489,-0.0014535909309973257,-0.002202713651365167,0.0008155170908776077,0.0012799831946184472,0.0013726180703477384,-0.0009226863989454142,-0.0051442158566264405,-0.003582066134442481,0.0013959992781525084,0.0011941967008401915,-0.006565940614308067,-0.0021663750421569163,0.0002858787162288646,0.0008485463475625311,-0.0010629619787702325,-0.00350207638836675,0.000608306816572869,0.0,0.0013471259031231245,0.001739643782858316,-0.00485918976275864,0.0022582455348468832,-0.0010228500426571,0.0009197004773866108,-0.0005556778541536459,0.0008752167292963109,0.0008484775611421121,-0.0027311905820962476,-0.00014527671422091056,-0.00030087525893693145,-0.0017733729812196806,-0.002829734791161867,0.0025894549683566897,-0.00042649016740633957,-0.003966196644937177,-0.00040461724835238425,-0.0011297114003666765,0.0005731670744938437,0.001981695728330337,0.0016248836426999607,0.0019390537673685219,0.002624092050051385,0.0011491358749569185,0.0158689520975241,0.0029511994347412827,-0.00925776201908185,-0.0007015263388123422,0.0010861008848668018,0.00043671919150718193,-0.0021715818112680815,0.003176055058388292,0.0019322819122730647,0.00033809336794411303,-0.000796228252870051,2.390005213679096e-05,-0.0030803495619188973,-0.00015413864636525882,-0.0017564398654523502,0.0017104180876384865,-0.0016601703096946602,0.0002916513226742265,0.0016876506904274064,-0.0024254282917596155,-0.0006674754474140095,0.0008960477127643798,0.002239487502737549,0.0031890704765971767,-0.0007631512155660346,0.0022124689446525996,0.000625584764391802,0.0015190055047318537,-0.001089302113960568,0.0016140213208682673,-0.000582139247678567,-0.0006059906945213373,0.0010172074711688665,-3.319440479760968e-05,0.002175098335146091,0.0009586927451355345,0.0001512244870908434,-0.0014235952962814685,0.0030341557368305473,0.0008302971815333408,0.0025104349412617744,0.000818803940122256,0.002728089549625293,-3.864401119719044e-05,0.0004480454828439789,0.0006378033473967965,0.0009805471384550129,-0.0005633810810716151,-0.001294664153454002,0.003293455950533055,0.0017104832380810922,-0.0009871328942357175,0.0006943596114372761,0.0006821922935511634,0.0038750198729101755,0.004661275846671357,0.0015064697027085785,-0.003591716160762385,-0.004558002070399839,-0.0017592109076680486,-0.003949412677404982,-0.0019989048654467626,-0.0015312142509104904,0.0027155989405208856,-0.008263218119911812,-0.0005947116229030117,-0.0024143922205808743,7.501477443359647e-06,-0.0005530228844961463,-0.004709428215848323,0.0014427908672377207,0.0014465767955818705,-0.004980333561173914,0.0011542668039197272,0.001790702516963431,-0.002801994158383686,0.0029042197295873922,-0.007121223668811848,0.0007159284347827281,-0.0031269902942856064,0.0018358265894841566,0.0,0.00045035344569979957,-0.0014294106590029337,0.011215811727611403,-0.0034989867067012977,-0.002638463460937396,0.003119910230767692,0.0005118364687275246,0.0007513039832673236,0.00019961577804393396,-0.0015258465353743663,0.0009079734511712958,-0.0038070601498730984,-0.00014176851593293295,-0.0010019431175206268,0.0005200394399165469,0.002077680480219258,-0.0021239616623533668,0.00027954968735799233,0.0030466451980296757,0.001748604672539178,-9.463583152743627e-05,0.00228633777054783,0.0013956747060823753,0.0015202738252519344,0.0022622967056257237,0.002329663542009805,0.0017429845884734472,0.0006697121792850266,-0.0014956612306346714,-0.0005032544480833107,0.0012492074779731051,0.0011269635490780054,0.005582242507233148,-2.9502872598786305e-05,0.0,0.0016859801127604424,-0.0033070343992424927,0.0004771684794353364,0.0013069792911839225,-0.003685221984485488,0.0031436198134348605,-0.001272340714970579,-0.007069652946321282,0.000557409410157076,-0.004371441741106848,-0.0026657904692579436,0.002056601528144072,-0.003588798185522904,-0.0031144725753670523,-0.0021982766879252657,0.002786779935595232,-0.0013614906501300038,0.0024796716785104324,0.0005064579247291434,0.0010861008848668018,0.0016433717736883252,7.246558632666962e-05,-0.00273083311954986,-0.002088551663291008,0.0012684963464788855,-0.005160515348343495,-0.0008214055908056209,-0.0022183389189228816,-0.0028368333951414035,-0.0029666472452000024,-0.0034189872626276133,0.0006139399990883948,0.0016755096905637112,0.0006005732988492775,0.002118411756838938,-4.354495997250135e-05,0.002702451734719011,0.0005518866569661499,0.0024593703797842863,-0.0005766231868007427,-0.0010651022387718615,0.005007780471219178,-0.0005561378799629305,-0.001735049182920357,0.005060589095793545,0.00033654636179350457,0.001323769388143513,-0.002255109925379475,0.0010861008848668018,0.001383010011282233,-0.00031673073351035384,-0.0004607034745581328,0.0,0.0023573675601245864,0.0011311250807316963,0.0,-0.00401187386317051,0.0006437663773972266,-0.0012414942329829546,-0.0007666487949913,-0.0,0.0006066613006619544,0.0009226331473341872,-0.0007553291815957251,-0.0005350550850090732,0.0022184603085462734,0.0007114836763455198,0.00035517142003164146,0.0017401936148445255,-0.0003045024546214798,0.0014530208021474216,-0.004602049997444962,-7.140578259921567e-05,0.0008929900243618455,-0.003222849412042019,-0.001538666910408324,0.007261933151060563,-0.0003462773275399687,-4.432355895957913e-05,0.002363013313058841,0.016966955358843464,-0.0003480096149049344,0.0006875101043310949,-0.0027555046734173993,0.003442587923999185,0.0003626520485184641,0.0005209920500516887,-0.0038861920548981348,0.0004369980819139348,0.0027750942244525157,0.004707605679596068,0.003158360811235951,-0.00021089298029545428,-0.005055683111835644,0.003144971783472317,-0.0006120692325433223,0.003978950046265658,0.002340151839000065,-0.004239701791587457,-0.00320197698417056,0.00032045110955258394,0.0,-0.0021406182501264343,0.0019780250705975495,-0.002627083806494105,-0.0026747002185071164,-0.0008904839669914819,0.0032723253575650613,0.0,0.0021549810065029334,0.0016652974276584632,1.1054275797036687e-05,0.0,-0.004184634555293045,0.001329148346481979,0.0003737691744499652,0.0009252985072960583,-0.0021223715940209727,0.0005513967925556446,-0.00418747284375863,-0.0018234331048150804,0.00280988562925813,0.003112531784390442,0.0017081660718395405
2005-01-14,0.0032211402523090334,-0.001367652628742538,-0.01381372512949568,0.002314475591152051,0.0011027002910293222,0.0019815810927307697,0.0028292175385138995,0.001353480364638266,0.0007799731668963433,0.0008665893987576006,0.0016041988129629286,0.001613639461538479,-0.0034327224450833244,0.0028679462417628664,0.0002524242867660212,-0.0009047260986489487,-0.0026422447712992772,-0.0009047260986489487,-0.0038033018633819964,2.2138985969826627e-05,0.0012483633670978733,0.00136957928524725,-0.0025662345390969105,-0.0012289655291386132,-0.003805971135207472,-0.0017397345140179768,0.0004962212503002191,0.0023934587801524134,-0.002719560247867678,0.0020367208328888713,0.0,0.0005655440697041036,-0.0022856181412662657,-0.0018328786421242407,-0.000787010627900096,0.0017165651839544474,-0.006505723297638396,-0.0011201417500673982,0.0009275138907165869,0.006201495382528922,-0.0021843619963686973,-0.0009729544498501344,-0.00496147920338565,-0.0005925409299522331,0.0002517166129279359,0.00034284627783701013,-4.1285841402687326e-05,0.0004481373475419556,-0.0003846786146504722,-0.0009047260986489487,0.004005943809585851,0.0015153059127268485,0.004059107675847107,-9.583112647063735e-05,0.0013940137239769178,-0.0006643858478690152,0.0008213652818494637,-0.0007543012537325307,-0.0011414908553738648,0.0025024870138463714,0.006731846980046089,0.001904745497970562,-0.0016978201805495196,-0.004000754370877453,0.005594170380865959,-0.005866063116830777,0.001466841699565105,-0.003277456734146704,0.0013712035098728261,0.0007448838051880368,0.0011483881546665473,0.002256416496283743,0.0033593424512097054,0.00271311774949198,0.001366949838229667,-0.0009628645811837329,-0.007490711065881748,-0.0006674567434146997,-0.0024499642158497567,0.00099906066994545,0.0005651212441470201,-0.002181727080146096,0.0009826887981092883,-0.0019375161373139781,0.00021758010119847979,-0.0005569566275677657,-0.0003278200897332828,-0.0025710606719149707,0.0,-0.0024817642650417655,0.0019851852974404147,-0.001563760303697777,8.629760008332704e-05,-0.003363880321814959,0.002630617550472786,0.000717641612309216,-0.0018669221873468165,0.0040516057998651964,-0.0011884200912738827,0.004897763974468077,0.00041784487206929683,0.004150037963976589,0.00029760647965099433,0.000986298122575192,0.0017285994261493302,-0.0006701408239392783,-0.0012431681320684775,-0.0010074952951244546,0.0014475483187456218,-0.002365907067015259,-0.007788412717255973,0.00011059706895581728,-0.001330312498668714,-0.00403962347030626,-0.0038721878168130083,-0.0017651979682103902,0.0,0.0004324197510487404,0.0011269863675323058,0.0029683949734772962,0.0006381089093465791,0.0028162774879062127,0.006192206447279503,-0.00032284555091246223,0.002653191984672975,-0.006164383513992869,0.0034353065405385123,0.005238254551841977,0.0010714351470600637,0.0007492305205588151,0.0006903810341504009,0.00022341828819057478,-0.0019336007349817473,0.000497735635091387,-0.0025188710031339824,-0.0022299366285667686,-0.0024345755788512985,0.002139781546740375,-0.0007271828360267204,-0.0029956914973562265,0.0012396731071720585,-0.009999486915711365,0.0027428665848663416,-0.0011155572665941635,0.0016885498646962887,0.0007694357866803793,-0.0011058192644863053,-0.0012415766887094624,-0.0018173854986106108,-0.001386969511674445,-0.0011387954989823662,-0.00024166772384542093,0.0,0.006429645399313897,0.0015247943392504412,-0.0009492519732322592,0.0023920964678204753,-5.035828294910675e-05,-0.0018527579222796394,0.0008988878138612115,-0.0008185557684095894,0.002474116035998144,0.0005207856622255201,0.0014286359730822482,-0.003030142559636011,-0.004255170452601585,0.0,-0.002657375493120322,0.0017313311429694655,-0.0002553738374592546,-0.005779794590718938,0.0002646779734774034,0.0006964484594800445,-0.0017955451851995993,-0.0030600437305838358,0.003090542822798158,0.0,0.002358928819181246,-0.0034063751397123746,-0.0010864707447715085,0.0005584665716612106,-0.003446351488032507,-0.00017106862070926575,0.002175905186946654,0.00031729886208590655,0.0023082405351635624,0.002236407518840821,-0.0018198734393686073,0.00017473600541277547,-0.00047151175944467396,-0.0018397352456656561,0.0005014094512515189,0.004181538496454247,-0.00036258169064596826,-0.00038081763775750033,-0.0015187835523820799,0.001551103371455104,0.0010127569430024021,-0.004413928003529655,0.002796681268451067,0.0005090774521931904,-0.0018939171808286396,0.004522122218493682,-0.0011283782011390574,-0.0008548986398484175,0.0010931404413076686,0.0013242371760047978,-0.002345127346349096,-0.0002825632479438455,-0.005735469040292888,0.002108282762366753,-0.006225564689991274,-0.005945604720086634,0.0042027014337490875,0.0017107846887268227,0.0007810154319031021,0.0012640258018247618,-0.003726634082220618,-0.0006612962824877096,5.72703881779986e-05,-0.0006980893156911073,0.0018988445643192244,0.0013220001700975671,-0.002585678178952152,-0.0011842749543690462,-2.9947754825789062e-05,0.002626827866221038,-2.7536866243486385e-06,-0.0013843275836685762,0.0008038094178639204,-0.006655007888055331,0.006140055707682711,0.0006494979959354468,0.0,0.0010711775831861647,-0.003736849701819912,0.0019536333935952477,0.004741017650312031,0.0011650346771204456,0.0005930106552667261,-0.0012913251724562273,0.00032928140918599613,0.0007423511282592805,0.0003623397018437298,-0.0026015084778126616,-0.0016684261618395127,-0.002505223899222766,0.00533140202263696,-0.0018422457126123662,0.003246509873857497,-0.0011270775771518508,0.003823496405929171,0.00032317160968714975,0.00022267942541893097,-0.0006207452903500626,-6.517272813921001e-05,-0.005627163147654944,0.0017036752226318246,-0.0004497663825566557,0.0024071895523552775,-0.001697658036351513,0.0034752622834029667,0.0021992885754470518,0.001081962775020273,0.0004958748197683488,-0.0012304572203704568,-0.0008342665879404707,0.00010093162508763187,-0.004226408326746737,0.0009762958060632466,0.000999519676944358,0.00034103691904384387,0.0026386628393285944,0.0036782676300594554,0.001547866474191128,0.0006655504875488994,0.0017797335418565624,0.002285283058963735,0.0025536358553304153,0.0017937595680228794,0.0004323718899260327,-0.0020852812705622636,0.002793479023193243,-0.0011606118284099242,-0.0011425233503039884,-0.004057718400195167,-0.003246232295244328,0.002056854528551959,0.0025279703011883707,0.0018912676656821815,-0.0004271414891135108,-0.002711961276379081,-8.83772745366615e-05,-0.0005253247536485111,0.0012722223844817324,0.0005373306202078791,-0.00017585311824244428,0.00035376519416913777,0.001028522761015244,-0.0003970771060501728,0.002942897344922013,-0.0016243473173683653,0.00243470136204403,0.001776659230812866,0.002520591141247892,-0.0030213027017314997,0.0018336344189148173,4.99778949805203e-05,-0.006578922098826426,0.0017889821803315636,-0.0029590748673530604,-0.001679635526705045,0.0028028475040784164,0.0024003236284770666,-0.0030581164766135768,0.00023127746633881322,0.0018448700603489567,-0.0032976172902218544,0.0012132178433358197,0.00463601471687661,-0.00374654050306516,-0.004479151478765357,0.0010670234288281458,-0.00792942650094057,0.0012805074749686082,-0.0028010985056691647,0.00034786787460508683,0.0016598511614579307,-0.0023014676912532245,-0.0012265538308952836,0.0005048723898356109,0.004179729854579155,-0.001273254385101411,0.0002846553687148498,-0.005572101422532238,-0.00292335339186233,0.005127591771731855,0.0020025855598183313,0.001463714927022094,0.0021468265428538284,0.0,-0.0003337414124054348,-0.00047474690007985804,0.0007137198129331861,-0.0009047260986489487,-0.001969925048374921,0.0033497925290500107,0.0013827053922989888,0.001419152697243914,0.0010834245163379534,-0.0022756112909660922,-0.0006909657710035705,-0.0002255295275535088,-0.001300648376570648,-0.0025732171542395452,0.0016013515120391288,0.004331861502767648,0.000157986535513042,0.0024719037907310762,-0.0017066782846966826,0.0005243393391184469,-0.001908288279169805,-0.005096967699449332,0.0010453142077746988,-0.0006602378281317561,0.002077051005833028,0.001488218629011666,-0.00021998782939005438,-0.0009988196087004626,-0.00034499657872143604,-0.003599518076677558,-0.0011620337519496085,-0.002052125044928668,0.002372886196493172,0.0020949710892285297,0.0,0.003701073089758535,-0.0020787259445177227,0.002083465150463822,-0.002596544450433182,-0.004508952068090646,0.004481361270049811,0.0021458916117115313,-0.003773489938135743,-0.005418358308942574,0.00040707139000772783,-0.00238126846453754,-0.002017572162975099,-0.011978069961169803,0.0014477480122280049,0.001238547473548895,-9.921097917645052e-06,0.0017811867532054463,0.004729516863731179,0.003429432830476776,-0.003974411787980669,0.0028073895567238016,0.0060061598477160775,0.0016547672498766367,0.0009295415679975222,0.0037640477583320937,-0.0056765128431598534,-0.0014216697511151924,0.0007239192270122119,-0.0008329863077627628,0.0018696120993031713,-0.001779272263654873,0.001359370106732441,-0.00031291714504860297,0.002327414549817946,-0.0031603511762650005,0.0011780096364464546,-0.0015570661275301151,-0.0002648348768055119,0.0013919288450841962,0.00300920684351747,-0.0018443708301930121,0.00157677437024315,-0.0014999139262698148,-0.003948276135035248,-0.003257818195441205,-0.00031609622802798726,-4.851910634755772e-05,0.005958821936699687,-0.004888476032337697,-0.001440357220051473,0.0020777158310983633,-0.0013147052910022102,0.0,-0.0023121497859807656,-0.0010669861955606768,0.0,0.0033252216790326003,0.000818333883731925,0.0010131859281043898,0.0018531461111108078,-0.0,-0.0008427246026297142,-0.000757590066032627,-0.0004348121049167733,0.0012694078989705967,0.002031040633614421,0.0013859301132220832,0.0006421608375748808,0.0007367300055391384,0.00039221545199105554,0.00019662280339282926,-0.00020126931453956712,0.00023513678452293917,0.0007476246245926535,-0.0002251081292160957,0.0012140022033023952,-0.0009047260986489487,-0.0015900683505491863,0.003149411504621704,0.005092259049306232,0.001819899773646592,0.0006995602301237393,-0.0011833710035183025,0.001654528698492714,0.0033873852402276543,0.0024505334370925826,0.0025984547833911385,-0.007815650394739812,-0.0012692052032946162,-0.0013153226850900215,0.008007633268954895,0.004850450104657376,0.002067956327194798,-0.0009047260986489487,0.0014171552088634801,0.0010680999345195755,0.0008138607269759832,0.00029355493147600783,-0.001873411561380457,-0.005271886264393551,0.0033549933246304485,0.0,-0.0003127693372410254,0.00047103352194207353,-0.0010267870917017145,-0.0017706657491059735,0.000679390647677984,-0.0012897737809344347,0.0,0.0009135535256337234,0.00046057267369649455,0.0018021650259878144,0.0,-0.00299684584105776,-0.002774800900294776,-0.002669903536616582,0.0033592188885737885,-0.0007507260984660273,0.0014975660421164777,-0.002794053153080232,0.0034591831483715813,0.001886156790978643,0.0013606304929007786,0.005276797534967148
2005-01-18,-0.0019949270972537793,-0.0014402528228447575,0.0006274327694595925,0.001354562755184959,-0.002575236089105121,0.001677281795767176,0.0008787293391804173,0.001080866374128665,0.0014550858935833185,-0.0024229261038103355,0.002095403378518461,-0.0019217791338595831,0.001415905855167219,-0.003586531568748852,0.002971711595055691,0.0007468102772654592,-0.002919967813642134,-0.0006368960973143949,0.0026975531414802413,0.0026060440947939987,-0.0015168438644879653,0.0015806139790506748,-0.0008390014562221295,-0.0029598262750860607,-0.0038903353579645026,0.0022945110641405574,-0.0005088440144147549,-0.00240958608762509,0.002140761655859024,0.002471424846563917,0.0,-0.0015907454950074304,-0.009947219255398387,0.0008878976515942148,-0.0016380483110883582,4.7694626089972294e-05,-0.002713296478328808,-0.002318913770734136,-0.0018082745857799663,-0.0023160761040303493,-0.00011392891502510878,0.00010661737834812952,-0.0021133628382395625,0.0007526393515408182,-0.001212640833196772,0.0036598707316657783,0.0024348328036059024,0.0029400355119783006,0.0005848779935967472,0.001322917950633061,0.0006806391621927109,-0.00017353934312119796,0.0025248692091239156,-0.0005810021253487264,0.005033408675145564,-0.0014960571509059055,-0.000614626180866454,-0.0019047378510377744,-0.004500249189955195,0.0008668902885614164,-0.0027737763343784923,0.003149243096413817,-6.37203684381405e-05,0.0009926056094385902,-0.004820387921097302,0.003119015071357891,0.0016522081536772698,-0.00029079987222346056,-0.0028565349151962564,0.0003350321630558877,0.0018157259558333485,-0.0016943925138536238,0.001224698963508423,-0.0005295410252522569,0.0004762967648453986,0.0049785921228325146,-0.005857448996865828,0.0024100021704860732,0.0013447013346558725,0.0026401081595608454,-0.0015895265834488055,0.001778718716711059,0.0007752710186088477,-0.00021974505719082361,-0.0009567348122629036,0.0009194105592912691,-0.000213555348688082,0.014572922753276518,0.0,-0.007503080688793613,0.002654462361797884,-0.0021732187979799813,-0.0041098384489545395,0.00040443292243221815,-0.0037376400201634464,0.0032140852708290053,-0.00272445356171052,0.0023949655919397396,-0.00012859505033834212,0.0039433274625259255,0.0003949380770438437,-0.0008231060988552718,0.001188143415156937,0.00018692413680753653,0.00046614847066429096,-0.0011243503820615812,0.0017970275025368644,-0.0007244378813203239,0.0007960944892963167,-0.0017932613587468716,0.000955943283211047,0.0018832596017572722,-0.0014589642257754121,4.8545750288857915e-05,0.0008889430184601297,-0.0007906818883300176,0.0,0.0012272481488576953,0.00028434063176974866,-0.0025677234965707893,0.0007346067534272247,-0.0009878367330917292,-0.0026365793070794027,0.0015865107069788626,-0.004840473112502657,-0.004003624160620111,0.00013392654566505335,-0.0036569384935586763,0.0015992190016003267,0.00033080176337628794,0.0009233378717235204,0.0036819621083622653,-0.00017221956911619144,0.0010141467693925623,0.0008634012327931001,-0.0031169067341416433,0.0010552136155741179,0.002140761655859024,5.193501831895535e-05,-0.0006650446825809558,-5.787367752121251e-05,-0.00039854878832276544,0.002380609545120666,-0.0030930345538664,0.0029681352446045994,-0.00405716139538944,-0.005443319089950962,0.004056462437770865,-0.00032400180023015035,-0.0012845587296941995,0.0010870411584450069,-0.001188951237751409,0.0,-0.002950906035708038,-0.001195988193862618,0.002505007009084481,-0.00044141685318369565,-0.0007684276730509257,-7.895204318823197e-05,-0.005352610222646539,3.969093225995121e-05,-0.0009682996030278166,0.0028066080950728267,-0.0018926900455344985,-0.0032917662094342024,0.0016441190864116698,0.0,0.0004914752940994969,-0.00488132842046433,0.0033982658971766747,-0.0010018122196393889,0.002539667835128948,2.828116846640454e-05,-0.00034459770667136165,0.001525663410459619,-0.0014989396670622081,0.0,0.0025160896636182845,-0.0004080410670363436,0.0001697817106902508,0.003380021297542984,-3.676329112718192e-05,0.002890037144152686,0.0013275001692562769,0.0003975206550874904,0.0003684402419214631,0.0021995844784399483,-0.003932248415990816,0.0037644087250322863,0.0015172955138640066,0.0019963340433288555,0.002592527998344371,0.004191233277583988,-0.002063195032979644,0.003921807869259186,0.0031268100670427826,-3.317162772985152e-05,-0.0005302689308911843,0.0030131486160607183,0.0008410956297663592,0.0018798160254734977,0.004365495359959289,0.0034850364458485056,0.005985423945214646,-0.004132274399738651,-0.0013431271365492298,-0.0006616457949727573,0.0012981701055378237,-0.00114277654359017,-0.005850775049219363,-0.004863357829206161,-0.002411728844411546,-0.0034446551579231156,0.0007180188194429436,0.0018042558270062927,-9.114952165861195e-05,0.0010645670479859598,-0.0015994759733588505,-0.002363503429427691,-0.0030245517494572344,0.002140761655859024,0.0015572970664822574,-0.00366287729778526,-0.0012268728825919942,0.002140761655859024,0.0005521458448154215,0.0007958798820615382,-0.0008908262917171446,-0.00498679274837044,-0.0008299473645639498,-0.004701426751557001,0.0011916070967175317,0.0031193918636472,0.0,-0.001146929893020856,0.0025350446613608382,-0.00017385804794976982,-0.001566276115253409,0.0023983926920396214,0.0031643116197222093,-0.0020428031340389776,-0.00048287915566056714,-0.0018388483385985055,0.02289781856494474,0.0017985466787401574,0.0029149062755762277,-0.002988793565265245,-0.003684441814950544,0.0024283633664631153,-0.0009700725475519119,-0.0008715108613657025,-0.0037575511544055175,2.697116277957076e-05,0.0018611280338510752,-0.0019851105986578845,-0.0005083261259212688,-0.0063544693467125655,0.001973477997037046,0.0015222628855325634,-2.3794825097517327e-05,0.0001921255812914701,-0.006732218647729567,-0.00114045249801603,0.0006499695944287289,-0.0013676223836764927,-0.00017472632084689814,0.0009945766927800805,-0.0011079730337189698,-0.004880519437142117,0.001647469207521473,-0.0005323833040790317,0.0012719562506676241,-0.0034112539546671985,-0.0017443644940657187,-0.005565683170650975,-0.0009604295003103579,0.0008714668083751914,0.0001289983942756089,0.0007081618872693501,-0.003724333762635373,-0.003375245759224206,0.002140761655859024,0.002140761655859024,0.002928483558605415,-0.0024630426480690888,-0.003003640620479508,-0.004358453419230409,-0.002921849655960695,-0.0003168124635813773,-0.0014501490947919895,-0.006189052880353503,0.006495192440239029,-0.0008765055748872844,0.0019859313313335407,-0.0006354160308361902,-0.0022129254932900075,0.0012146414594103067,0.0016748006140144729,0.002645204617992217,0.0026426340403247384,0.0032498582147699752,0.002140761655859024,-0.007771592849045333,0.0015734545475163684,-0.002217232326516301,-0.002310203181157219,-0.00037119848887792896,-0.0007512907785752764,0.0008941851952030176,0.00024557197599858635,0.002140761655859024,-0.0005714777114259284,0.0036491127976743636,0.002140761655859024,0.0036443801386003764,0.00029351546195263494,0.0011951004537938442,0.0004893471774216367,0.0007695368480270505,-2.564108179530062e-05,-0.000797940961852177,0.0006965548403291584,0.0019154294213250083,0.0006164597258387974,0.004763515845466339,0.0004044872855002936,-0.0006495112126622863,0.0011839946584644393,-0.0043294738422026205,-0.01136807103552342,-0.00208166691244196,-0.004457056401803959,-0.00018736332491792477,-0.0006992784839663181,-0.007760289010933073,0.001278573579955629,-0.006404066856021937,0.0030561639605001705,0.005083262957016277,0.0008062292064015008,0.0,-0.0014320298062375576,-0.0002894094512491492,-0.001178964893076049,-0.0007977682849054921,-0.0031887465375765073,2.9225312207644457e-06,0.001836727421835472,-0.0011081027474098223,-0.0010562437092053918,-0.0018723626046267265,-0.0001054609981532509,-0.00368509310567758,-0.0031586192393442568,0.0010445393270263547,0.0025897713578767684,0.00297451700576168,0.001020979305727872,0.0004763732839850318,0.0011782694364913216,0.0020776541480620305,-0.00250708747908024,-0.005857750887117273,-0.002312273079229304,0.00041173035378815704,0.0008697053626316452,0.002140761655859024,0.0015198994559354753,0.00036458328700162296,0.0012187607694036228,0.0005891322300137707,-0.001990696900517304,0.0005440434331165912,0.004186192525348363,0.0020780485807717617,-0.0,0.0014506640079603574,-0.0005866235263854485,0.00011199204759448308,-0.0006034264350393201,-0.0001592316239362989,0.0006388663312347432,-0.0012224877069657763,-0.0003948616504043698,0.0008813034358054645,0.00041090053882691203,-0.0009398926654404125,0.0012722078559447142,0.0004831745586753074,0.0024276603766512205,-0.0005624870150330089,-0.0004076807661665109,0.00032042509534216835,-0.001865446546568849,-0.001225276276858618,-0.0006698021473519531,0.002301588717392248,0.006617437008362982,-0.0012924500515746444,-0.0018401768854851403,-0.0010573156452639303,0.001356830434086926,0.001400609176373685,0.0005811396682936981,-0.0006259185618098819,-0.0009604836730145658,-0.0011870239583595338,0.0011691807412269268,0.0010948109408543277,0.0016583222285267976,-0.0021366456806296546,-0.0021010708027897145,-0.0009433013682665861,0.0034476873013160212,0.0017988836518568988,0.001180735047322604,-0.0022677753908896016,0.0010046005451004667,0.000853110015013642,-0.00020074739630123188,0.006003691435122586,-0.002204990378428632,0.0018487981116755688,-0.0012038145729604706,-0.00414675955072908,0.004098334397658779,0.00235722732829816,0.009561210952036532,0.0,-0.0014766165439590408,-0.00115468264079665,0.0,-0.0039013515897721104,-0.0028771639224757137,-0.0005401704558840107,-0.0016534321757027796,0.0,0.003141769224027105,-0.0007735079455962356,0.00033060825455373825,0.0034661111699203005,0.00243311660166457,-0.00414675955072908,0.002525511626664894,0.0006139859191374434,0.0007242581097843827,0.004243589037441553,0.008763052708333342,0.0005856825711596649,-0.0010715904498787413,-0.0002270702517971252,0.0011723596366323686,0.0036941492480749966,-0.0013244794710634417,0.0010473557170323693,0.0027795519090683014,0.002661211349382659,0.0013507946046636004,0.003164917188911389,0.0012481564177210145,-0.002458920866173656,-0.0003984296006477105,-0.00017323313764370837,-0.003762187509353429,-0.0026454925213552113,-0.0017508097726217616,-0.001835170871836395,0.003991466552659104,-9.842229761470804e-05,0.0012695834598121657,0.0013181384838529071,-0.001602113078019911,0.0019236444588578124,-0.0013272484479841535,-0.0006917355213663619,-0.0029346631503909086,0.0022551459642735903,0.0,-0.00040575439204124146,-0.0016183435351361686,0.004617428828685505,0.0028602339609640403,0.0004179624629738573,0.0011852238935419622,0.0,0.0013504929383997308,0.0018632632329320339,-0.000572116026679685,0.0,-0.011453462481324157,0.000958261414068474,0.0012469018742601917,0.0004368238841341602,-0.0005761358353517772,-0.0003334034660338263,-0.0020889615317846414,-0.008099373363305485,0.003304729281669082,0.002762746808422812,-0.003369375513522667
2005-01-19,-0.0017782362061557558,0.0032545622177451703,0.0007457948288102376,-0.0005282129505301336,-0.00264610525579119,-0.003918527216531617,0.003299532975544739,-0.0012018035300592168,-0.0033558083970562096,0.001456603320251316,0.0016399583178209238,-0.0005726965177004056,-0.011383538137839133,-0.0073292641455153466,-0.0018815937146566756,0.0006389146319100513,0.0006220193838339389,-0.004174572043432076,0.004738683324240052,6.459392967194897e-05,-0.0013844987847717511,-0.0032596449317894884,-0.0026379645292575063,-0.0004256727138776793,-0.0037102752145106756,0.001833126269673531,-0.0027792621250225264,0.002240688310437948,-0.0029894667202701114,0.0009615598964452641,0.0,-0.002008462293288413,0.002083648995196265,0.0024853928048072316,0.002009193556607273,0.002240688310437948,0.0006284769816411477,0.0011189283866533362,0.0008666313730212711,0.0005778168791903973,0.0032859459363164425,-0.0034326452011405333,-0.024012972526503973,0.0008522462474812128,-0.0012573241844154176,0.0028128918608056894,0.002240688310437948,0.0003384878448175083,0.002240688310437948,0.0008006850625054721,-0.0022027765076726804,-0.002123303953014504,-0.002444091882406257,-8.171603945050704e-05,0.0011255993388440784,0.0009813717560630925,-0.003067088931827537,-0.0009227855340891592,0.002212946492505649,-0.0014193132079846546,0.000591232112621099,-0.001534518801149287,0.0005302101629412773,0.003048319074538125,-0.0020324887310667976,0.001474991262739674,-0.000916598956367082,0.0003316501809659315,0.005353676013328406,0.002636844486518928,0.002240688310437948,-0.002007603407999452,-0.0035490877007436934,-0.0024780169925913576,-0.00047184993682171535,-0.0005037087753263792,0.001633177906554142,0.002097785626225684,-0.00025152633084130744,-0.0009990372274259367,-0.0016737191494616476,-0.0026309284458168715,0.0019405602438541368,-0.0001572997945177625,-0.0029534060231315535,0.00043913808251200016,-0.003804053284785972,-0.0009731111559365862,0.0,0.001746185866874986,-0.0002580751390317492,-0.0005295105677494748,0.002969496021029729,0.000611968360721886,0.0034125646075933483,-0.0016936096674203215,-0.0015577130357262879,0.0010302292790811554,0.003332293435500668,0.002240688310437948,-0.0011389391320615326,-0.0009944384645685805,0.0019611184033128284,8.986498773519715e-05,-0.001095379510494881,0.002310156104043511,0.003778747629764382,-0.00023164959944623132,0.0012941054370573873,0.0024532044993932326,-0.0007682061783272606,-5.943740650531768e-05,-0.0013136038836419207,0.0015532771189395577,-0.0006410613417377492,-0.001962248205667806,0.0,-0.002902184262585207,0.0002057547752379355,-0.0020617967678808265,0.003969950685371712,0.0003607175834443197,0.00014134605257669347,0.0003564447789218008,-0.0025398278221365742,0.0016260525226774285,-3.547603248413355e-05,-0.003254055297707161,0.001372954791800116,-0.00024075315140687067,-0.001282229258415229,0.005489158378497152,0.00038464264337612845,0.00015945652816858725,-0.0022490903732843123,0.0008663225679274878,0.002866108387846866,0.002182807103405469,-0.006135768856159358,0.0018080289725271618,0.0029907900653676706,0.0030948932997006337,0.0021136580274263737,-0.001385326446082418,-0.0004096881579965248,0.004449648945850673,0.0013973945723102141,-0.0032764983633671624,-0.0004007881236692692,0.0029516742346266884,-0.00026601549940102117,-0.0029010895917274465,0.0,-0.000352923460157999,-0.0015701159191260224,-0.0007128351507686402,-0.002166728039166328,-0.0021643193060137795,-7.591721121533568e-05,0.003410642428023061,-0.0016964780692606735,-0.0003033485964775992,0.0028762624455623957,0.0011405968623514346,-0.0033268702314273985,0.000489656546370524,0.0,-0.00023976902657375025,-0.0015395135886246308,0.001607393205586973,0.00021948357840287965,-0.003933380078130387,0.0029472727744016035,0.0005226708384148812,0.0003982499255264497,-0.003001546242339123,0.0,0.0019087672849061935,-0.007887702645632337,-0.0016456281460073146,0.0009162131464756614,0.00045171775310185537,-0.0006893496497357538,-0.00030383228603917,-0.001817090092050456,0.0012839564821962236,-0.011695668686600328,0.002107439489200985,0.001603215985595066,0.0009890689811941483,-0.0004656656519111038,0.0017743315854282342,0.004342117895235005,-0.0001310272167225113,-0.001818759698344459,-0.00017398759150064085,-0.0006483041444263066,-0.0019625769396394463,0.0002744332814370083,-0.0037553582715178398,-0.0031937440751232055,-0.0068734626021878,0.004501439735060187,-0.00029837853656948017,-0.002342445638235972,0.00039640541145027366,0.0016843486111108978,0.001795656619595226,0.0004952271073862241,0.001631802192594828,0.0013483772799426086,-0.000695834838915596,0.000978340490354044,-0.0012584168544219018,-0.000633792153774046,0.0005468187755719504,0.0007938943188901962,0.0013220028779669924,-0.0013118650971465614,-0.00040918717213834935,-0.0020313481452833163,-0.001356121971456763,-0.0011247773550302747,0.000833015843181773,-0.002607267324604202,-0.0019428278076909196,0.0024860499262763344,0.006461240336481379,0.00042949252121566586,-0.0018842313881203266,0.002240688310437948,0.004282261899354093,0.0002578705216955287,0.0,-0.0006828712785341024,-0.0008290935656217486,0.003051605009433756,0.006349481871820916,0.004349182137877509,-0.005381523434017169,0.003422728367650789,0.0011076390668532355,0.0028515402204307362,-0.010469448685012882,-0.0012805016851131265,0.0013649085950268992,-0.0007766855089055616,0.002240688310437948,-0.0009120831143992275,0.0010132518642644625,0.0034680745374586026,0.002240688310437948,0.0006447806544290514,-0.0013981805257941358,0.0028145293666026992,-0.0013389210408385865,0.0019423304999313736,0.000327573780341223,0.0008780495670299748,0.004136650774941377,-0.0019885860032362646,0.0005788256950610318,0.0031824252231573823,0.0006468020793135015,-0.0008169167308910844,0.0025785243373289703,0.00030911926321423427,-7.415639005500822e-05,0.001024627564300565,0.0017575654947472033,-0.0015219885587716682,-0.00045368441460966213,0.0014189723333085532,0.0010597371637102496,-0.0032751037860311383,3.369484950160069e-05,-0.0054650145764227505,-9.670909407835959e-05,-0.0036313393224306485,-0.0009655600624378083,-0.00414418818719876,0.0038081023536137943,0.0019275235166144348,-0.0010804225790949328,0.0038390565667960758,-0.0005208623625424125,-0.000399327381801045,0.00029092382303035996,-0.004554877372733256,8.124992903375643e-05,0.0021480407042441156,0.0004366144899509108,0.0019633215385791423,-0.0020800996289346146,0.001553728589111903,0.0005284330686678981,-0.003346060177698286,-0.0011224565945835722,-4.671329446419758e-05,0.0010197103744884234,-0.0005132951259811963,-0.002848794705118038,0.0006124727038470489,0.0076562901498111405,-0.0021092193542362704,-4.5959035429230345e-06,-0.0004630721612648441,-0.007230306745431478,-0.0032362778984201144,-0.0010075749085972404,-0.0005597682096323054,0.0006601497354631918,0.00045507853982564494,-0.00014306968143356692,0.0002371771232371732,-0.00028446214062457256,0.0024487198743397883,0.0011323415849512509,0.00840528990026796,0.004543799666625981,-0.0006030423307117473,0.002428604009981803,-0.005373958878513852,0.001482544642033672,-0.0010457539114560079,0.0024436445898064238,0.0028963714428556337,0.001974646842754861,0.002175837536485247,0.0062677483017615915,0.001210978056018641,-0.0008089318659112737,-0.0073669417063154845,-0.002720930161799258,0.003890538825672832,-0.0014454646540219755,0.002066655934964888,0.0019360844973235712,0.0015493862788257008,0.0001296678419101309,0.0,7.513164755765163e-05,0.0011103049428855215,-0.0015390095546558454,-0.0003257465736477455,0.0013173591358990526,-0.0002301588154193675,0.0013470529171779144,0.0014156093064330662,-0.0013083428644254283,0.0009838732966785705,-0.0011861710725352308,-0.005430599194774494,0.0006942467777196322,-0.0012014153858894302,-0.0006726629505065251,0.001779053986439239,-0.002855214444484088,0.0017813574879144123,0.0001226201304793831,-0.005654331063424625,0.02555152505784879,0.002169746956933735,0.002461059320159627,0.001131888208991933,0.0007795504337640404,-0.0006610567089724658,0.002240688310437948,1.3699530619980452e-05,0.0019235976642302053,0.0031633656544917386,-0.002823455930133999,-0.005775249637503511,0.0027197420966621243,0.001024263885134978,-0.0,-2.4612197048211445e-05,-0.0010943176983628775,-0.00029996106397833935,-0.0011518650925597962,0.0017157949464275404,0.005156860102771024,-0.00012142901302288654,0.0004555545494963231,0.002240688310437948,0.0006153107070250924,-0.005132031365196978,0.0011284918126065239,0.0023786614867127125,0.0007814800785855303,-0.0018685678801259652,0.003307072894755993,-0.00043539245771951485,-0.004978203108402606,-0.0034216984284430765,0.0001941469928958666,-0.0013973708703568317,0.0018960556365936597,0.0043504601334463005,0.0003759473279610566,-0.0018654114843177818,0.0013479739651511729,0.0018056676937952155,-0.0021590874103979856,0.005167690149545392,-0.0022014547052763415,-9.977117504903681e-05,-0.0026278637679771773,0.00039987776241350525,-0.0015877402498775642,-0.0004252874956437082,-0.00031139942100617005,0.00012558193243046226,0.0018057956598104732,-0.00017077673415765853,-0.0007761730496386724,-5.684327310396038e-05,0.0030403247361708704,0.00016609290851871673,-0.0010326341031246726,0.0027347403872301835,0.0019923707332254437,-0.0032894328173168046,-0.003304550422939874,-0.0020408915512620013,0.0003694848464070135,-0.002250373491351372,0.0004127286040760444,0.0,-9.795229414881945e-06,0.0007078881484458105,0.0,9.276241315178942e-05,0.0037600992542446907,0.00013129568944673597,0.008406594568936398,0.0,-0.0004959154808466128,0.002763997201810515,-0.0020562483309263372,0.0001821464668849699,-0.0046057359144762566,0.001203874363536054,0.0005399395498468486,-6.559369950595347e-06,-0.0005589893992053393,-0.0017710985424718526,-0.0027319154626239354,0.004475057957539601,0.0019300867775388618,0.0017225803904971533,0.0002744835600283824,0.006104413001414124,0.004219775390127962,0.001144327506294077,0.0008831509759067338,0.004236557283910985,-0.0042482365950856915,-0.0020591930483361913,-0.0006703597220193498,0.0007141807672652437,-0.002375555231264167,-0.0030384617157577475,-0.0022270919248727006,0.0007853212051441778,-0.00017843820604658304,-0.0008161342349532962,-0.0030771812698706684,-0.006329881657373764,0.004541091596592538,-0.0043211674843697265,0.001275604889859799,-0.0007186511107439739,-0.004173753020658019,0.003192538853841729,-0.0003356538270415721,-0.0016308131591786022,0.0,0.0005273573323111414,0.0006038549970685707,0.0006213134823361391,0.002877784518911265,8.103376291908879e-05,0.0002533766219810559,0.0,0.0011622014424936462,0.00546082752097197,-0.011107819708250448,0.0,0.0029801585323605273,-0.0007459048744098963,-0.004114459147492657,-0.0034746187429735417,0.0002774211159595535,0.0002203619714064035,0.002307449050084246,-0.0008093831855915645,0.0005370031965588177,-0.00795933112630472,-0.003650827906859372
