Date	A	AA	AAPL	ABC	ABI	ABK	ABT	ACAS	ACE	ACS	ADBE	ADI	ADM	ADP	ADSK	AEE	AEP	AES	AET	AFL	AGN	AIG	AIV	AIZ	AKAM	ALL	ALTR	AMAT	AMD	AMGN	AMP	AMT	AMZN	AN	ANF	AOC	APA	APC	APD	APOL	ASD	ASH	ATI	AVB	AVP	AVY	AW	AXP	AYE	AZO	BA	BAC	BAX	BBBY	BBT	BBY	BC	BCR	BDK	BDX	BEN	BF.B	BHI	BIG	BIIB	BJS	BK	BLL	BMC	BMS	BMY	BNI	BRCM	BRL	BSC	BSX	BTU	BUD	BXP	C	CA	CAG	CAH	CAT	CB	CBE	CBG	CBH	CBS	CC	CCE	CCL	CCU	CEG	CELG	CFC	CHK	CHRW	CI	CIEN	CINF	CIT	CL	CLX	CMA	CMCSA	CME	CMI	CMS	CNP	CNX	COF	COH	COL	COP	COST	COV	CPB	CPWR	CSC	CSCO	CSX	CTAS	CTL	CTSH	CTX	CTXS	CVG	CVH	CVS	CVX	CZN	D	DD	DDR	DDS	DE	DELL	DF	DFS	DGX	DHI	DHR	DIS	DJ	DOV	DOW	DRI	DTE	DTV	DUK	DVN	DYN	EBAY	ECL	ED	EDS	EFX	EIX	EK	EL	EMC	EMN	EMR	EOG	EP	EQ	EQR	ERTS	ESRX	ESV	ETFC	ETN	ETR	EXC	EXPD	EXPE	F	FCX	FDO	FDX	FE	FHN	FII	FIS	FISV	FITB	FLR	FNM	FO	FPL	FRE	FRX	GAS	GCI	GD	GE	GENZ	GGP	GILD	GIS	GLW	GM	GNW	GOOG	GPC	GPS	GR	GS	GT	GWW	HAL	HAR	HAS	HBAN	HCBK	HD	HES	HET	HIG	HNZ	HOG	HON	HOT	HPC	HPQ	HRB	HSP	HST	HSY	HUM	IACI	IBM	ICE	IFF	IGT	INTC	INTU	IP	IPG	IR	ITT	ITW	JAVAD	JBL	JCI	JCP	JDSU	JEC	JNJ	JNPR	JNS	JNY	JPM	JWN	K	KBH	KEY	KFT	KG	KIM	KLAC	KMB	KO	KR	KSS	LEG	LEH	LEN	LH	LIZ	LLL	LLTC	LLY	LM	LMT	LNC	LOW	LSI	LTD	LTR	LUK	LUV	LXK	M	MAR	MAS	MAT	MBI	MCD	MCHP	MCK	MCO	MDP	MDT	MER	MET	MHP	MHS	MI	MIL	MKC	MMC	MMM	MNST	MO	MOLX	MON	MOT	MRK	MRO	MS	MSFT	MTB	MTG	MTW	MU	MUR	MWV	MYL	NBL	NBR	NCC	NE	NEM	NI	NKE	NOC	NOV	NOVL	NSC	NSM	NTAP	NTRS	NUE	NVDA	NVLS	NWL	NWS.A	NYT	NYX	ODP	OMC	OMX	ORCL	OXY	PAYX	PBG	PBI	PCAR	PCG	PCL	PCP	PDCO	PEG	PEP	PFE	PFG	PG	PGN	PGR	PH	PHM	PKI	PLD	PLL	PNC	PNW	POM	PPG	PPL	PRU	PSA	PTV	PX	Q	QCOM	QLGC	R	RAI	RDC	RF	RHI	RIG	RL	ROH	ROK	RRD	RSH	RTN	RX	S	SAF	SBUX	SCHW	SE	SEE	SGP	SHLD	SHW	SIAL	SII	SLB	SLE	SLM	SNA	SNDK	SNV	SO	SOV	SPG	SPLS	SRE	SSP	STI	STJ	STR	STT	STZ	SUN	SVU	SWK	SWY	SYK	SYMC	SYY	T	TAP	TDC	TE	TEG	TEL	TER	TEX	TGT	THC	TIE	TIF	TIN	TJX	TLAB	TMK	TMO	TRB	TROW	TRV	TSN	TSO	TWX	TXN	TXT	TYC	UIS	UNH	UNM	UNP	UPS	USB	UST	UTX	VAR	VFC	VIA.B	VLO	VMC	VNO	VRSN	VZ	WAG	WAT	WB	WEN	WFC	WFMI	WFR	WFT	WHR	WIN	WLP	WM	WMB	WMI	WMT	WPI	WU	WWY	WY	WYE	WYN	X	XEL	XL	XLNX	XOM	XRX	XTO	YHOO	YUM	ZION	ZMH
19991124.0000000000000000	40.1250000000000000	20.4561999999999990	23.2500000000000000	5.9675000000000002	NaN	31.3748000000000000	22.7112000000000020	7.5854999999999997	13.3399000000000000	18.7500000000000000	18.4133999999999990	27.2347000000000000	10.9671000000000000	43.6458999999999970	6.8811999999999998	15.7395999999999990	16.6651999999999990	29.2813000000000020	6.7676999999999996	23.4590999999999990	24.3828999999999990	67.4252000000000040	16.3214000000000010	NaN	215.9375000000000000	24.6522000000000010	27.6413000000000010	25.3892999999999990	13.6250000000000000	47.6250000000000000	NaN	25.8125000000000000	84.2500000000000000	8.5853000000000002	26.1634999999999990	28.7586000000000010	16.5669000000000000	14.7487999999999990	25.5152000000000000	10.3088000000000000	12.5213000000000000	23.1680999999999990	NaN	17.6778000000000010	12.1831999999999990	52.4598000000000010	8.2500000000000000	40.9247000000000010	25.3225000000000020	26.8750000000000000	34.4827999999999970	20.4228999999999980	29.0124999999999990	15.1250000000000000	24.5183000000000000	22.6971999999999990	19.9597000000000020	24.2088000000000000	39.5245000000000030	24.1063000000000010	29.2364000000000000	30.4513000000000000	23.3374999999999990	18.6701000000000010	21.7255000000000000	9.1386000000000003	35.5628000000000030	7.9467999999999996	NaN	10.2596000000000010	58.4290000000000020	25.7924000000000010	64.8037000000000060	9.1654000000000000	39.0281000000000020	10.9688000000000000	NaN	31.1881999999999980	14.6057000000000010	25.3419999999999990	63.6381999999999980	15.2902000000000000	33.9707999999999970	10.7916000000000010	22.1203000000000000	15.3594000000000010	NaN	7.5273000000000003	NaN	45.7552999999999980	21.2288999999999990	40.2845000000000010	73.5652000000000040	20.8166000000000010	5.0738000000000003	7.0077999999999996	3.1833000000000000	7.2694999999999999	23.5741000000000010	159.6875000000000000	24.8397000000000010	NaN	50.5863000000000010	35.3029000000000010	35.2211000000000000	26.3794000000000000	NaN	20.1023999999999990	26.4844000000000010	12.8579000000000010	3.3561000000000001	44.2502000000000000	NaN	NaN	21.1371000000000000	41.8930999999999970	NaN	39.5063999999999990	34.9375000000000000	61.2500000000000000	44.8125000000000000	17.0965999999999990	31.8722999999999990	46.1437000000000030	2.2881000000000000	9.5909999999999993	40.4688000000000020	26.6875000000000000	2.8586000000000000	19.0657000000000000	23.2281000000000010	7.5746000000000002	18.1409999999999980	52.7787000000000010	5.9732000000000003	17.8244000000000010	33.2445000000000020	41.0000000000000000	6.9105999999999996	19.2500000000000000	7.3933000000000000	3.8978999999999999	24.8292000000000000	26.1942999999999980	47.9089999999999990	39.3273999999999970	27.3622000000000010	11.2756000000000010	17.8706999999999990	NaN	6.1860999999999997	17.4155000000000020	10.5079999999999990	21.0938000000000020	14.5451999999999990	18.5136000000000000	57.4810999999999980	NaN	21.0025000000000010	53.1606000000000020	42.3958999999999970	43.1657999999999970	24.6016000000000010	25.5462999999999990	9.4773999999999994	33.3827000000000000	NaN	10.2338000000000000	29.2500000000000000	6.3906000000000001	20.6205000000000000	31.3750000000000000	10.4923000000000000	22.4896999999999990	12.9954000000000000	9.8129000000000008	NaN	20.6250000000000000	14.0169999999999990	15.6308000000000010	39.9988000000000030	13.7288999999999990	28.2171999999999980	11.2942000000000000	NaN	23.4712999999999990	37.0749000000000000	36.9981000000000010	52.8639999999999970	24.5300000000000010	17.5237000000000020	42.1379999999999980	12.9219000000000010	20.5932000000000000	61.3001000000000000	23.5489999999999990	39.7008999999999970	18.2500000000000000	4.7245999999999997	2.7422000000000000	32.6424999999999980	32.4542000000000000	58.8498999999999980	NaN	NaN	16.4552000000000010	37.0212999999999970	18.6954999999999990	76.3720000000000000	31.5975000000000000	37.4844999999999970	18.9348999999999990	12.5639000000000000	19.3447999999999990	19.3619999999999980	1.1742999999999999	51.2652000000000000	16.6511000000000000	24.0424000000000010	42.3727999999999980	29.4107999999999980	29.0352000000000000	49.8796000000000030	16.6075000000000020	22.9511000000000000	43.4607000000000030	8.0646000000000004	NaN	5.8992000000000004	20.9971999999999990	8.0000000000000000	19.9063000000000020	97.2852000000000030	NaN	32.7090000000000030	4.3939000000000004	38.5118999999999970	22.9063000000000020	39.0244000000000000	45.3671999999999970	21.8566000000000000	NaN	30.5356999999999990	129.0000000000000000	32.8125000000000000	6.5782999999999996	19.1337000000000010	490.0000000000000000	7.9062999999999999	44.8994000000000000	48.8400000000000030	NaN	13.6441000000000000	43.2635000000000010	12.3957999999999990	28.9399000000000020	10.7205999999999990	19.7689999999999980	NaN	21.9830000000000010	7.5846999999999998	44.1608999999999980	48.8902000000000000	59.5611000000000030	21.9292000000000020	34.4688000000000020	19.6553000000000000	18.8523000000000000	6.7268999999999997	8.7500000000000000	17.8843999999999990	21.7062999999999990	33.7102000000000000	68.0079000000000060	23.0966999999999980	18.8411000000000010	37.2042000000000000	12.7925000000000000	30.8750000000000000	16.4593999999999990	10.1132000000000010	6.2762000000000002	10.9969000000000000	77.9375000000000000	20.5326999999999980	14.8229000000000010	23.5723999999999980	12.7857000000000000	31.9239000000000000	42.9393999999999990	17.8773000000000020	21.0761000000000000	NaN	36.4202000000000010	37.1724999999999990	37.2051999999999980	NaN	26.4267000000000000	NaN	23.7854999999999990	32.8005000000000000	14.1297999999999990	33.2603000000000010	33.5007999999999980	45.3750000000000000	14.1400000000000010	33.9547000000000030	NaN	36.8012999999999980	62.4144000000000010	9.4822000000000006	45.6672999999999970	39.4455000000000030	43.2830999999999970	55.3564000000000010	7.0669000000000004	33.6250000000000000	12.3729999999999990	NaN	9.3292999999999999	11.5838000000000000	13.8125000000000000	20.6238999999999990	13.9390000000000000	22.9694000000000000	11.0517000000000000	21.0625000000000000	22.9563999999999990	7.6250000000000000	19.3700000000000010	18.1420999999999990	20.3026000000000020	30.4063000000000020	41.0268999999999980	10.4719000000000000	3.2639000000000000	NaN	24.5271000000000010	16.6899000000000020	36.9735000000000010	NaN	11.3750000000000000	43.2109000000000020	33.8641000000000010	18.2344000000000010	7.7301000000000002	23.2972000000000000	8.8757000000000001	33.6323000000000010	2.9864000000000002	20.2049999999999980	12.5643999999999990	6.6169000000000002	11.3280999999999990	18.3799999999999990	30.0413999999999990	33.4337999999999980	NaN	45.9117000000000030	NaN	6.5378999999999996	25.5075000000000000	5.0212000000000003	19.2063999999999990	14.8415000000000000	17.9911999999999990	47.3984000000000020	19.9483000000000000	12.4327000000000010	42.3361999999999980	6.1254999999999997	NaN	17.8996999999999990	10.3750000000000000	19.6914000000000020	35.7644999999999980	44.0176000000000020	29.7891000000000010	17.6511000000000000	9.7199000000000009	17.4012999999999990	19.4043999999999990	14.0242000000000000	28.6255999999999990	16.7242000000000000	30.9076999999999980	NaN	NaN	NaN	29.8504000000000000	24.0168000000000000	50.9519000000000020	21.4121999999999990	6.7187999999999999	25.4512000000000000	10.0000000000000000	25.4950000000000010	44.1471999999999980	NaN	17.7481000000000010	14.6727000000000010	10.4004999999999990	26.8256000000000010	20.3945000000000010	14.4278999999999990	NaN	15.7188000000000000	18.7153999999999990	11.4640000000000000	7.8768000000000002	12.3740000000000010	15.2621000000000000	14.8009000000000000	23.6322000000000010	60.0478999999999980	6.7500000000000000	6.6851000000000003	34.0107000000000000	NaN	8.0850000000000009	17.1342000000000000	23.3642000000000000	36.8357999999999990	14.9636999999999990	5.9062999999999999	17.9818000000000000	40.0193999999999970	23.9090999999999990	NaN	10.2943000000000000	19.2958000000000000	NaN	45.5000000000000000	13.7813000000000000	31.3260000000000010	14.3645999999999990	1.2500000000000000	34.2340999999999980	25.3841000000000000	10.3607999999999990	69.8125000000000000	31.3579000000000010	NaN	49.5366000000000000	18.0234999999999990	29.3301000000000020	16.6093000000000010	6.6257000000000001	84.4878999999999960	49.6749999999999970	28.3279000000000000	66.5371999999999990	29.8750000000000000	6.7609000000000004	29.8054999999999990	40.1334000000000020	57.5670000000000000	22.8436999999999980	18.7574000000000010	22.7624000000000000	6.5937999999999999	21.6804999999999990	51.3125000000000000	4.5172999999999996	35.9741000000000000	17.4495000000000000	95.7500000000000000	49.7263999999999980	28.7785000000000010	24.7500000000000000	31.8015000000000010	8.6745000000000001	17.2872999999999980	9.3312000000000008	13.0000000000000000	12.4097000000000010	55.0906999999999980	NaN	15.3424999999999990	13.3557000000000010	28.0550000000000000	15.6662000000000000	49.3337999999999970	36.1300000000000030	NaN	30.1281000000000000	44.0585999999999980	49.7879999999999970	2.8750000000000000	20.2467000000000010	14.8156000000000000	38.4787000000000030	43.1379000000000020	34.5985999999999980	26.7145000000000010	2.2576999999999998	56.5625000000000000	10.0716000000000000	51.2719000000000020	NaN
19991126.0000000000000000	40.8750000000000000	20.6932000000000010	23.6875000000000000	5.9980000000000002	NaN	30.9348999999999990	22.5997999999999980	7.5854999999999997	12.7600000000000000	18.9063000000000020	18.7867000000000000	27.7818000000000000	10.9671000000000000	44.2635999999999970	6.8510999999999997	15.3482000000000000	16.5675999999999990	28.3750000000000000	6.7215999999999996	22.8432999999999990	24.7793999999999990	68.3793000000000010	16.3214000000000010	NaN	207.5000000000000000	24.5089000000000010	28.8891999999999990	25.4667999999999990	13.7500000000000000	50.0000000000000000	NaN	26.1250000000000000	91.0625000000000000	8.4159000000000006	27.4265000000000010	28.2886999999999990	16.6781000000000010	14.2303000000000000	25.7149000000000000	10.7786000000000010	12.6640999999999990	22.9126000000000010	NaN	17.6086999999999990	12.8019000000000000	51.8108000000000000	8.1875000000000000	40.6606000000000020	25.3225000000000020	26.8750000000000000	34.2738000000000010	19.9852999999999990	29.7282000000000010	16.0000000000000000	24.6487000000000020	22.9017000000000020	20.0161000000000020	24.8358999999999990	41.2216000000000020	24.0513000000000010	29.7922000000000010	31.4436000000000000	22.8972000000000020	18.8575000000000020	22.2563999999999990	8.8165999999999993	35.5084000000000020	7.9858000000000002	NaN	10.1006000000000000	59.4093000000000020	25.7361000000000000	67.3199999999999930	9.1654000000000000	38.1411000000000020	11.2188000000000000	NaN	31.4990999999999990	14.8031000000000010	25.1975000000000020	62.9716000000000020	15.0947000000000000	34.9236999999999970	10.6126000000000000	21.5917999999999990	15.2932000000000010	NaN	7.4734999999999996	NaN	45.0347000000000010	21.2874000000000020	40.8997000000000030	74.5743999999999970	20.3828999999999990	4.8880999999999997	6.8609000000000000	3.1221000000000001	7.3497000000000003	23.4651000000000000	169.0937999999999900	25.0442000000000000	NaN	50.5863000000000010	35.0095999999999990	35.3046000000000010	28.2974999999999990	NaN	19.8103000000000020	26.4331999999999990	12.8252000000000010	3.2549999999999999	44.1912000000000020	NaN	NaN	20.8131999999999980	42.6893000000000030	NaN	39.5063999999999990	35.8750000000000000	64.5000000000000000	47.6250000000000000	16.6177999999999990	31.9516999999999990	45.1760999999999980	2.3203000000000000	9.6659000000000006	45.9688000000000020	26.1875000000000000	2.9403000000000001	18.7654000000000000	23.3738999999999990	7.5026000000000002	17.8975000000000010	53.1604000000000030	5.9732000000000003	17.8244000000000010	34.7556000000000010	43.5625000000000000	6.8253000000000004	19.1250000000000000	7.2435999999999998	3.8809000000000000	25.5103000000000010	27.3876999999999990	47.5155000000000030	39.8952999999999990	27.4451000000000000	11.0348000000000010	18.4594999999999980	NaN	6.1860999999999997	17.2419000000000010	10.6298999999999990	22.7500000000000000	14.4411000000000000	18.2197999999999990	58.7689000000000020	NaN	21.1511000000000000	53.5240000000000010	42.7556999999999970	43.9322000000000020	24.4054000000000000	25.0706999999999990	9.6608000000000001	34.3560999999999980	NaN	10.2017000000000010	29.7500000000000000	6.6406000000000001	20.5601999999999980	31.9379999999999990	10.5177999999999990	22.6465999999999990	12.8492000000000000	9.9341000000000008	NaN	21.0334000000000000	14.7233000000000000	15.7995000000000000	40.3686000000000010	13.5109999999999990	27.2956000000000000	11.3315000000000000	NaN	23.8013000000000010	36.8759999999999980	40.0326999999999980	53.1621000000000020	24.8989000000000010	17.5487000000000000	42.7653000000000030	12.6719000000000010	20.3752000000000000	62.9406000000000030	23.4344000000000000	39.4123999999999980	18.6250000000000000	4.7344999999999997	3.0859000000000001	32.5887999999999990	32.4337999999999980	57.9367000000000020	NaN	NaN	16.4552000000000010	37.0818000000000010	18.6433000000000000	73.7446999999999950	30.9252000000000000	38.5345000000000010	18.6494000000000000	12.4582000000000000	20.0043000000000010	19.2105999999999990	1.1742999999999999	50.9067000000000010	16.8461000000000000	23.9279000000000010	41.1364999999999980	29.2805000000000000	29.0650000000000010	49.2372000000000010	16.5163000000000010	23.1295000000000000	45.1991000000000010	8.0757999999999992	NaN	5.9387999999999996	21.2363000000000000	7.4375000000000000	21.5000000000000000	98.1538000000000040	NaN	33.0356000000000020	4.3939000000000004	39.5054999999999980	25.5938000000000020	39.1681999999999990	45.1265000000000000	22.1776000000000020	NaN	31.4575000000000000	135.0000000000000000	32.3125000000000000	6.6900000000000004	18.5932000000000000	539.2599999999999900	7.8906000000000001	45.5225999999999970	50.1599999999999970	NaN	13.2753999999999990	43.8738000000000030	12.0625000000000000	29.0394000000000010	10.4548000000000010	19.6247000000000010	NaN	22.5372999999999980	7.5846999999999998	46.0835999999999970	49.4510999999999970	60.1773999999999990	23.3619999999999980	34.3438000000000020	19.3792000000000010	18.9899999999999980	6.5052000000000003	9.2187999999999999	17.4409999999999990	20.8477999999999990	35.3695000000000020	67.6003000000000040	22.9023000000000000	18.4403000000000010	36.5700999999999960	12.7925000000000000	31.0313000000000020	16.7279000000000020	9.9777000000000005	6.2392000000000003	10.8309000000000000	84.2500000000000000	20.3201000000000000	14.9694000000000000	21.6402000000000000	13.0100000000000000	31.3078000000000000	42.3568000000000000	18.3896000000000020	21.4353000000000020	NaN	35.4844000000000010	38.0835999999999970	36.9872999999999980	NaN	26.2543000000000010	NaN	23.9888000000000010	32.8005000000000000	13.6260999999999990	33.0193000000000010	33.3489000000000000	45.3125000000000000	14.2410000000000000	34.9476000000000010	NaN	37.3526000000000020	63.8151999999999970	9.6346000000000007	45.0540999999999980	40.3528000000000020	43.4673000000000020	56.0944999999999960	7.3025000000000002	34.0313000000000020	12.2525999999999990	NaN	9.4588999999999999	11.2236999999999990	13.7500000000000000	19.7870999999999990	14.3443000000000000	24.0603000000000020	10.7339000000000000	20.8682000000000020	22.5664000000000020	7.7187999999999999	20.9400000000000010	17.6325000000000000	20.6446000000000010	31.8125000000000000	40.7323000000000020	10.7363000000000000	3.1453000000000002	NaN	24.6644000000000010	16.6899000000000020	35.5292000000000030	NaN	11.6875000000000000	43.5649000000000020	33.9247999999999980	17.7500000000000000	7.7088000000000001	23.6213000000000020	8.4558999999999997	33.3241999999999980	2.9931999999999999	20.0918999999999990	12.6862999999999990	6.5247999999999999	11.2500000000000000	18.1224999999999990	29.5703000000000000	33.8395999999999970	NaN	45.9894000000000030	NaN	6.4741000000000000	25.7894000000000010	4.8414000000000001	19.3198000000000010	14.1602999999999990	17.9420000000000000	47.0837999999999970	19.5689999999999990	12.3028000000000000	41.4468000000000030	6.1417000000000002	NaN	17.8032000000000000	10.3125000000000000	19.5551999999999990	36.9504000000000020	46.6405999999999990	30.7188000000000020	17.8990000000000010	9.8565000000000005	17.3395000000000010	19.2331000000000000	13.9011999999999990	28.7495000000000010	17.0338999999999990	30.9629000000000010	NaN	NaN	NaN	28.8786999999999980	24.3770999999999990	52.3872000000000000	21.8404999999999990	6.8593999999999999	25.4512000000000000	9.8439999999999994	24.0925000000000010	44.4093000000000020	NaN	17.2942000000000000	15.2052000000000000	10.4779000000000000	26.3078000000000000	20.7067000000000010	14.4634000000000000	NaN	17.6875000000000000	18.3207999999999980	11.4938000000000000	8.1164000000000005	12.3415000000000000	15.0997000000000000	14.8009000000000000	23.4773999999999990	59.4658999999999980	6.8750000000000000	6.4654999999999996	34.4523999999999970	NaN	8.3262999999999998	17.1342000000000000	23.6959000000000020	38.5129000000000020	15.3185000000000000	5.8516000000000004	17.8957000000000010	39.2498000000000000	24.2174000000000010	NaN	10.3917000000000000	19.3004000000000000	NaN	44.8750000000000000	12.8750000000000000	31.2377000000000000	14.2395999999999990	1.2350000000000001	36.0615000000000020	25.0375000000000010	11.3108000000000000	70.8750000000000000	31.0631999999999980	NaN	47.1358999999999990	17.4976999999999980	28.6924999999999990	16.4331999999999990	6.4390000000000001	83.9937999999999930	51.0343000000000020	28.1833999999999990	66.3414999999999960	29.8125000000000000	6.5975999999999999	29.0384999999999990	39.7760000000000030	59.6929999999999980	22.4415000000000010	18.9770000000000000	22.4608999999999990	6.6718999999999999	22.2388000000000010	51.5625000000000000	4.3339999999999996	35.5259000000000000	17.3470000000000010	98.0000000000000000	50.5846000000000020	28.6583000000000010	24.6250000000000000	31.9849000000000000	8.6256000000000004	17.3812000000000000	10.2460000000000000	12.6250000000000000	12.5138000000000000	54.3316000000000020	NaN	14.9375000000000000	13.2722000000000000	28.7931999999999990	16.1427000000000010	50.6435000000000030	37.0000000000000000	NaN	30.1507000000000010	44.1950999999999960	50.7860999999999980	2.8125000000000000	19.7430999999999980	14.8614000000000000	38.5711000000000010	43.9945000000000020	34.8761999999999970	26.8924999999999980	2.2456000000000000	58.2500000000000000	9.9024999999999999	51.5285999999999970	NaN
19991129.0000000000000000	41.0000000000000000	20.5747000000000000	23.5625000000000000	5.9980000000000002	NaN	30.8249999999999990	22.4139000000000020	7.6553000000000004	12.8492000000000000	18.7500000000000000	17.9779000000000020	28.2986000000000000	10.7531000000000000	44.2098999999999980	6.5122999999999998	15.2083999999999990	16.4048000000000020	28.4688000000000020	6.7446000000000002	22.8432999999999990	24.5810999999999990	66.6300999999999990	16.2103000000000000	NaN	213.5000000000000000	24.1770000000000000	29.0764000000000000	25.2189000000000010	14.1875000000000000	49.5625000000000000	NaN	27.0000000000000000	95.5000000000000000	8.3594000000000008	29.7722000000000020	27.8188000000000000	16.4557000000000000	14.2303000000000000	25.4194000000000000	11.6076999999999990	12.6640999999999990	22.5292999999999990	NaN	17.6086999999999990	13.2302000000000000	51.5032000000000000	8.4375000000000000	40.0336000000000000	25.2670999999999990	27.3125000000000000	34.1169999999999970	20.0477999999999990	29.7832000000000010	16.1563000000000020	24.6487000000000020	25.3309000000000000	19.9033000000000020	24.4815000000000000	41.3310000000000030	24.0513000000000010	28.4583000000000010	31.0094999999999990	22.6770000000000000	19.7941000000000000	22.8179000000000020	8.7246000000000006	36.1073999999999980	7.9828000000000001	NaN	10.1006000000000000	58.8701999999999970	26.0740000000000020	69.2587999999999940	9.1280000000000001	38.1411000000000020	11.1875000000000000	NaN	31.1881999999999980	14.8688000000000000	25.0530000000000010	63.7595000000000030	14.8600999999999990	34.7993999999999990	10.4613000000000000	21.5917999999999990	15.2491000000000000	NaN	7.4734999999999996	NaN	49.9585000000000010	20.6439999999999980	40.4153000000000020	73.5091000000000040	20.3828999999999990	4.6818999999999997	6.7873999999999999	3.0609000000000002	7.3764000000000003	23.1563000000000020	167.5625000000000000	24.1352000000000010	NaN	48.7715000000000030	33.8359999999999990	35.3879999999999980	27.1838000000000020	NaN	19.4888000000000010	26.2283000000000010	12.5968000000000000	3.4571999999999998	44.4271999999999990	NaN	NaN	20.6782000000000000	43.3935999999999990	NaN	38.9052999999999970	34.7500000000000000	65.2500000000000000	46.9375000000000000	16.6177999999999990	31.3555999999999990	44.7528000000000010	2.3409000000000000	9.7158999999999995	47.5000000000000000	26.1875000000000000	2.8313999999999999	19.0355999999999990	22.9041999999999990	7.4306000000000001	17.7758000000000000	52.2879999999999970	5.9732000000000003	17.9444000000000020	33.7989999999999990	42.4375000000000000	6.8253000000000004	19.1250000000000000	7.2885000000000000	4.0000000000000000	25.0768999999999980	26.7910000000000000	46.9253000000000000	39.7796999999999980	26.9753000000000010	10.9947000000000000	18.0439000000000010	NaN	6.0964000000000000	16.6922999999999990	10.5714000000000010	22.3280999999999990	14.3630000000000000	18.1544999999999990	58.3590999999999980	NaN	20.8538999999999990	53.3166999999999970	42.8755999999999990	44.3920999999999990	24.3661999999999990	25.0706999999999990	9.5385000000000009	33.9553000000000010	NaN	10.2821000000000000	29.0938000000000020	6.5156000000000001	20.1865999999999990	30.8750000000000000	10.5177999999999990	22.3851000000000010	12.8492000000000000	9.8071000000000002	NaN	20.5993999999999990	14.7233000000000000	15.6308000000000010	41.1081999999999970	13.2931000000000010	27.2956000000000000	11.0704999999999990	NaN	23.5949999999999990	36.3121999999999970	38.7488999999999990	51.4727999999999990	24.5300000000000010	17.0743000000000010	42.4515999999999990	12.6719000000000010	20.5204999999999980	61.3547999999999970	23.3770999999999990	38.9422000000000000	18.6875000000000000	4.7344999999999997	3.0897999999999999	32.1056000000000030	32.6364999999999980	57.9367000000000020	NaN	NaN	16.4552000000000010	38.6546000000000020	18.6433000000000000	73.8044000000000010	30.2530000000000000	38.9545000000000030	18.1347999999999980	12.2920000000000000	20.3340000000000000	18.8212000000000010	1.1716000000000000	51.1854999999999980	16.7387000000000010	23.7562000000000000	41.2959999999999990	29.3238999999999980	29.4223000000000000	48.9300000000000000	16.6075000000000020	22.6538000000000000	44.2719000000000020	8.0420999999999996	NaN	5.9387999999999996	21.0768999999999980	7.3750000000000000	21.5000000000000000	97.2273000000000000	NaN	32.8723000000000030	4.3625999999999996	38.6625000000000010	30.1875000000000000	39.1201999999999970	44.3442999999999970	21.7691000000000020	NaN	31.3421999999999980	137.2500000000000000	33.4063000000000020	6.6528000000000000	19.4579999999999980	533.8800000000000000	7.8750000000000000	44.6556000000000000	50.8200000000000000	NaN	13.7669999999999990	42.7548999999999990	12.1770000000000000	28.7226000000000000	10.4548000000000010	19.7689999999999980	NaN	22.3690000000000000	7.5145000000000000	44.3468999999999980	49.3108000000000000	59.1991000000000010	23.0505000000000000	34.9375000000000000	19.1584000000000000	18.7299000000000010	6.5791000000000004	9.2187999999999999	17.5887999999999990	20.8477999999999990	34.0013000000000010	66.7270000000000040	22.7467000000000010	18.3552000000000000	36.0416000000000030	12.6846000000000000	31.0313000000000020	16.9426999999999990	9.8809000000000005	6.2392000000000003	10.7894000000000010	83.2500000000000000	20.7453000000000000	14.7349999999999990	22.7442999999999990	13.5708000000000000	30.4990999999999990	41.7618000000000010	18.4514000000000000	21.4329000000000000	NaN	35.8997000000000030	37.4153999999999980	36.1156999999999970	NaN	25.8522000000000000	NaN	23.9888000000000010	32.7398000000000020	13.6260999999999990	32.9926000000000030	32.7197000000000030	47.0000000000000000	14.0390000000000000	35.0964999999999990	NaN	37.6873000000000000	63.6139000000000010	9.3192000000000004	44.0632999999999980	39.6921000000000030	43.3579000000000010	55.4793999999999980	7.3202999999999996	35.1250000000000000	12.2792999999999990	NaN	9.3033999999999999	10.5035000000000010	13.5000000000000000	19.9347999999999990	13.8454000000000000	22.3295999999999990	10.5573999999999990	20.3410000000000010	22.3844999999999990	7.7187999999999999	20.5000000000000000	17.8874000000000000	20.7688999999999990	34.8280999999999990	40.7055000000000010	10.4983000000000000	3.1453000000000002	NaN	24.3898000000000010	16.6899000000000020	34.7577000000000000	NaN	11.5625000000000000	43.8892999999999990	33.2571999999999970	18.2030999999999990	7.4752000000000001	22.7571000000000010	8.4558999999999997	33.1039999999999990	2.9773000000000001	19.9786000000000000	12.3813000000000000	6.6322000000000001	11.2344000000000010	17.7685000000000000	29.2040000000000010	34.0148000000000010	NaN	45.7563000000000030	NaN	6.4348000000000001	25.5779999999999990	4.8563000000000001	19.3343999999999990	14.0629000000000010	17.8438000000000020	47.4508000000000010	19.5310999999999990	12.2055000000000010	41.4468000000000030	5.9642999999999997	NaN	17.7549999999999990	10.2500000000000000	19.3645999999999990	36.5758999999999970	46.8012000000000010	31.1875000000000000	17.7502999999999990	9.5561000000000007	16.7841999999999980	18.9315000000000000	13.8704000000000000	28.2537999999999980	17.4675000000000010	30.7973000000000000	NaN	NaN	NaN	27.6773999999999990	23.0561000000000010	52.2974999999999990	21.4121999999999990	6.7031000000000001	25.4512000000000000	9.8439999999999994	24.1236000000000000	43.0985999999999980	NaN	17.4454999999999990	14.1994000000000010	10.1529000000000010	25.4791999999999990	20.1407999999999990	14.3923000000000010	NaN	17.5000000000000000	18.0389000000000020	11.4292000000000000	8.0564999999999998	12.1461000000000010	15.3432999999999990	14.4947000000000000	23.4154000000000020	59.5446000000000030	6.8750000000000000	6.5387000000000004	34.3935000000000030	NaN	8.1453000000000007	16.9813000000000010	22.7481000000000010	38.0780999999999990	15.3185000000000000	5.7577999999999996	17.7232999999999980	40.0193999999999970	23.6947000000000010	NaN	10.2617999999999990	19.3918000000000000	NaN	44.7500000000000000	13.2500000000000000	31.5321000000000000	13.9898000000000010	1.2350000000000001	37.4626000000000020	24.7209000000000000	11.6967000000000000	70.3125000000000000	30.5916999999999990	NaN	43.2128000000000010	17.1178999999999990	29.2142000000000020	16.3529000000000020	6.2213000000000003	82.3880000000000050	50.6327000000000000	27.7498000000000000	66.1457999999999940	29.6875000000000000	6.4493000000000000	28.9288999999999990	39.6738000000000000	61.0559000000000010	21.8784999999999990	18.6255999999999990	22.1092000000000010	6.5625000000000000	22.3318000000000010	50.2500000000000000	4.3733000000000004	35.3016999999999970	17.4836999999999990	100.5000000000000000	51.3922999999999990	28.2378000000000000	24.8125000000000000	31.2763999999999990	8.5767000000000007	17.1463000000000000	10.0630000000000010	12.6250000000000000	11.9933000000000000	54.6794999999999970	NaN	14.7650000000000010	13.2444000000000010	28.0021999999999980	15.3683999999999990	51.0801999999999980	35.6199999999999970	NaN	29.8903000000000000	43.2849000000000000	48.8485999999999980	2.8125000000000000	19.8942000000000010	14.9079000000000000	38.6634999999999990	44.2699000000000000	34.5985999999999980	26.5957000000000010	2.1972999999999998	57.3125000000000000	9.8564000000000007	51.5542000000000020	NaN
19991130.0000000000000000	42.0000000000000000	20.5352000000000000	24.5313000000000020	5.9980000000000002	NaN	30.8249999999999990	22.5997999999999980	7.5622999999999996	12.2246000000000010	18.7500000000000000	17.6825000000000010	28.6937000000000000	10.7531000000000000	43.9861000000000000	6.8662000000000001	14.9848000000000000	15.9491000000000000	28.4688000000000020	6.7293000000000003	22.4620000000000000	24.5810999999999990	65.3028000000000050	16.2936000000000010	NaN	237.5000000000000000	23.3471000000000010	28.6396000000000020	25.0330000000000010	14.8750000000000000	47.5000000000000000	NaN	26.5625000000000000	88.2656000000000060	8.5288000000000004	30.6743999999999990	27.8188000000000000	15.2882000000000000	13.9998000000000000	25.0680000000000010	12.1328000000000000	12.6845000000000000	22.5292999999999990	NaN	17.6086999999999990	13.7060999999999990	50.8511999999999990	8.4375000000000000	39.0765000000000030	25.2670999999999990	27.3125000000000000	33.9602999999999970	19.1724999999999990	29.8383000000000000	16.2500000000000000	24.5183000000000000	26.9381999999999980	19.8469000000000020	23.7726000000000010	39.6888000000000010	24.0513000000000010	28.0136000000000000	31.0094999999999990	22.6770000000000000	16.3598000000000000	21.4192000000000000	8.4332999999999991	34.6914000000000020	7.9828000000000001	NaN	10.0409000000000010	58.0369000000000030	26.0740000000000020	67.0313000000000020	9.1280000000000001	36.3080000000000000	11.1250000000000000	NaN	31.0845999999999980	14.8688000000000000	24.7351999999999990	63.0322000000000030	14.4689999999999990	34.3021999999999990	10.0482999999999990	20.8872000000000000	15.2491000000000000	NaN	7.3445000000000000	NaN	49.4782000000000010	20.0006999999999980	39.5005000000000020	73.1727000000000060	20.2093999999999990	4.8262999999999998	6.6405000000000003	3.0609000000000002	7.3764000000000003	23.1563000000000020	158.3750000000000000	24.4079000000000010	NaN	49.6221999999999990	34.4228000000000020	35.3879999999999980	27.5550000000000000	NaN	19.4888000000000010	25.9209000000000000	12.4989000000000010	3.4571999999999998	43.0703000000000030	NaN	NaN	20.7320999999999990	45.1392000000000020	NaN	38.7959999999999990	34.5625000000000000	65.2500000000000000	46.3125000000000000	16.5050999999999990	29.5672999999999990	44.7528000000000010	2.4840000000000000	9.7158999999999995	45.0625000000000000	27.0000000000000000	2.7496999999999998	19.1858000000000000	22.6126000000000000	7.4665999999999997	17.3861999999999990	50.9793999999999980	5.9732000000000003	18.0044000000000000	33.0429999999999990	44.5000000000000000	6.8253000000000004	19.2500000000000000	7.2885000000000000	4.0000000000000000	24.7053000000000010	27.5070000000000010	46.9253000000000000	39.7796999999999980	25.7591000000000000	10.9947000000000000	18.0439000000000010	NaN	5.9028000000000000	16.3308000000000000	10.3862000000000010	21.1250000000000000	13.9467000000000000	18.1544999999999990	60.1736999999999970	NaN	20.2099000000000010	52.4804000000000030	42.8755999999999990	43.4416999999999970	24.4838999999999980	25.0147000000000010	9.5385000000000009	33.9553000000000010	NaN	10.2982000000000000	28.9844000000000010	6.7577999999999996	19.3403999999999990	30.0629999999999990	10.3737999999999990	22.3851000000000010	12.8492000000000000	9.7161000000000008	NaN	20.8292000000000000	14.2887000000000000	16.1930000000000010	42.5257000000000010	13.2931000000000010	26.9796000000000010	11.0704999999999990	NaN	23.1825000000000010	36.1464000000000000	38.7488999999999990	51.8205999999999990	24.6221999999999990	16.8996000000000000	41.7197000000000030	12.6719000000000010	20.0847000000000020	61.3547999999999970	23.8355000000000000	38.0047000000000000	18.9375000000000000	4.6950000000000003	3.0781000000000001	32.1056000000000030	31.9411999999999980	59.6617000000000030	NaN	NaN	16.4552000000000010	40.0459000000000030	18.7476999999999980	71.4158999999999930	29.5807000000000000	38.9545000000000030	17.5618000000000020	12.2920000000000000	20.3340000000000000	18.6914000000000020	1.1716000000000000	51.5431000000000030	16.3007999999999990	23.9850999999999990	40.8440999999999970	29.5412000000000000	29.0054000000000020	48.9300000000000000	16.6075000000000020	22.1187000000000000	45.1700999999999980	7.7051999999999996	NaN	5.8992000000000004	21.0768999999999980	7.0000000000000000	21.0000000000000000	96.0691000000000060	NaN	32.0559000000000010	4.3048999999999999	37.7892000000000010	26.5000000000000000	39.5037999999999980	44.4647000000000010	22.0609000000000000	NaN	30.3916000000000000	140.1250000000000000	33.4063000000000020	6.6528000000000000	19.2418000000000010	499.5000000000000000	7.8750000000000000	45.1974999999999980	49.8299999999999980	NaN	13.7669999999999990	41.5681999999999970	12.6951000000000000	28.7226000000000000	10.2776000000000000	19.4323000000000010	NaN	23.8838000000000010	7.4302000000000001	43.5405999999999980	49.0771999999999980	59.8731000000000010	21.3062000000000000	36.1875000000000000	19.1584000000000000	18.0871999999999990	6.5791000000000004	9.2187999999999999	17.9140000000000010	20.8477999999999990	33.6227999999999980	68.4736999999999940	22.7467000000000010	18.8763000000000010	35.5131000000000010	12.7925000000000000	30.2813000000000020	16.9426999999999990	9.8034999999999997	6.2762000000000002	10.9555000000000010	83.2500000000000000	22.2944000000000000	14.7349999999999990	22.9100000000000000	13.3465000000000010	29.9213999999999980	42.4617000000000000	18.2129000000000010	21.7930999999999990	NaN	35.8997000000000030	36.9294999999999970	34.8628000000000000	NaN	26.1107000000000010	NaN	23.9888000000000010	32.0715999999999970	13.5466000000000000	32.9926000000000030	32.8498999999999980	51.0000000000000000	13.7696000000000010	38.1743000000000020	NaN	37.4904000000000010	63.5172999999999990	9.2866000000000000	44.0397000000000030	39.5292000000000030	43.3579000000000010	54.4953000000000000	7.2317000000000000	33.7500000000000000	12.2792999999999990	NaN	9.3033999999999999	10.5634999999999990	13.5000000000000000	19.4918000000000010	13.4400000000000000	22.3295999999999990	10.5573999999999990	20.3410000000000010	22.3844999999999990	7.5937999999999999	20.4400000000000010	17.5306000000000000	21.3286000000000020	33.5469000000000010	39.4202000000000010	10.4983000000000000	3.0525000000000002	NaN	23.7948999999999980	16.8143999999999990	34.7577000000000000	NaN	11.5625000000000000	43.8892999999999990	33.2571999999999970	18.1719000000000010	7.4115000000000002	22.6850999999999980	8.4558999999999997	32.8399000000000000	2.9138000000000002	19.8654000000000010	12.3813000000000000	6.6322000000000001	11.2500000000000000	17.7685000000000000	28.6282999999999990	34.0702000000000000	NaN	45.2736999999999980	NaN	6.4348000000000001	25.5779999999999990	4.8563000000000001	19.3489000000000000	13.9656000000000000	17.4505000000000020	47.4508000000000010	19.5310999999999990	12.2055000000000010	40.5574000000000010	5.9642999999999997	NaN	17.4172000000000010	10.2500000000000000	19.2284000000000010	36.0765999999999990	45.3941000000000020	29.6875000000000000	17.7502999999999990	9.3923000000000005	16.0437000000000010	18.8492000000000000	13.5936000000000000	27.3244000000000010	17.2817000000000010	30.7973000000000000	NaN	NaN	NaN	27.6773999999999990	22.0955000000000010	51.4900999999999980	20.7163000000000000	6.6718999999999999	24.0196000000000010	9.6880000000000006	24.1236000000000000	43.6229000000000010	NaN	17.4454999999999990	13.5780999999999990	10.1529000000000010	24.8577000000000010	20.1931000000000010	14.3923000000000010	NaN	15.9063000000000000	17.7570000000000010	11.1567000000000010	8.0864999999999991	12.0158000000000000	15.4651000000000000	14.3416000000000000	23.4154000000000020	58.9598000000000010	6.6250000000000000	6.5387000000000004	34.3935000000000030	NaN	8.0447000000000006	16.7650000000000010	22.7481000000000010	36.0281999999999980	15.0253999999999990	5.8672000000000004	17.5222000000000020	40.0675000000000030	23.8108000000000000	NaN	10.0020000000000010	19.3918000000000000	NaN	42.3750000000000000	13.2500000000000000	33.2102999999999970	13.9898000000000010	1.2024999999999999	37.4626000000000020	24.4259999999999980	11.8155000000000000	68.1718999999999940	30.5916999999999990	NaN	43.6227000000000020	16.5920999999999990	29.2142000000000020	16.0588000000000020	6.2213000000000003	74.1122000000000010	49.3661000000000030	26.7863000000000010	63.8952999999999990	29.8125000000000000	6.2698000000000000	28.1070999999999990	39.6738000000000000	58.7663000000000010	22.1198000000000010	18.6255999999999990	21.9082000000000010	6.5625000000000000	22.3318000000000010	49.9375000000000000	4.3733000000000004	35.3016999999999970	17.4836999999999990	97.9063000000000020	50.8875000000000030	28.3579000000000010	24.9375000000000000	30.9221000000000000	8.5767000000000007	16.9114000000000000	10.0021000000000000	12.6250000000000000	11.9933000000000000	54.6794999999999970	NaN	14.5299999999999990	12.9383000000000000	28.4768000000000010	15.3088000000000000	51.2984000000000010	36.5000000000000000	NaN	29.8903000000000000	43.3759000000000010	48.7310999999999980	2.8750000000000000	19.9445000000000010	14.8614000000000000	38.6634999999999990	47.2986999999999970	35.5427000000000040	25.8834000000000020	2.1972999999999998	55.8594000000000010	9.8564000000000007	50.7074000000000000	NaN
19991201.0000000000000000	42.1875000000000000	21.1670000000000020	25.1250000000000000	5.9675000000000002	NaN	30.7517000000000000	22.5997999999999980	7.5622999999999996	12.0907000000000000	18.5938000000000020	16.8892999999999990	28.6937000000000000	10.5390999999999990	43.8697000000000020	7.0994999999999999	15.4880000000000000	16.2094999999999980	28.3125000000000000	6.7215999999999996	22.4620000000000000	24.5048999999999990	65.3426000000000040	16.2936000000000010	NaN	238.1250000000000000	23.2917999999999990	27.0485000000000010	24.4753000000000010	14.1250000000000000	45.0000000000000000	NaN	26.0625000000000000	87.2500000000000000	8.4159000000000006	31.1556000000000000	26.6439999999999980	15.2882000000000000	13.8558000000000000	25.4194000000000000	11.8565000000000000	12.6029000000000000	22.4440999999999990	NaN	17.6433000000000000	13.7060999999999990	50.8511999999999990	8.1875000000000000	39.6045000000000020	25.4887000000000010	27.3750000000000000	33.8558000000000020	19.3787999999999980	29.8383000000000000	15.9375000000000000	23.9966000000000010	25.7643999999999980	19.6777000000000020	23.7726000000000010	39.3603000000000020	23.9962000000000020	28.0136000000000000	30.6994000000000010	22.6770000000000000	16.3598000000000000	20.7454000000000000	8.5866000000000007	34.6370000000000000	7.7980000000000000	NaN	9.8620000000000001	56.9585000000000010	25.9050000000000010	61.2562000000000000	9.0561000000000007	38.4367999999999980	10.4375000000000000	NaN	31.0845999999999980	15.0004000000000010	24.5329000000000010	63.0322000000000030	14.7428000000000010	34.4679000000000000	10.1722000000000000	21.3653000000000010	15.2151999999999990	NaN	7.3659999999999997	NaN	46.8361000000000020	19.7254000000000000	38.0474000000000030	71.8829999999999960	19.6889000000000000	4.9294000000000002	6.6405000000000003	2.9384999999999999	7.4966999999999997	23.2107999999999990	153.7812999999999900	23.9533999999999980	NaN	48.8849000000000020	35.0583999999999990	34.5951999999999980	27.8850000000000020	NaN	19.4011999999999990	25.9209000000000000	12.4989000000000010	3.1943999999999999	44.4863000000000000	NaN	NaN	20.6241999999999980	44.8023000000000020	NaN	38.5775000000000010	33.8750000000000000	65.0000000000000000	45.1875000000000000	16.1672000000000010	29.3288000000000010	44.7965999999999980	2.3590000000000000	9.5160999999999998	47.2500000000000000	27.2500000000000000	2.5318999999999998	19.0056000000000010	23.0013000000000010	7.4306000000000001	17.3861999999999990	51.7973000000000000	6.0274999999999999	18.2444999999999990	34.6049000000000010	42.8125000000000000	6.9958999999999998	19.2500000000000000	7.3933000000000000	3.8298000000000001	24.2100000000000010	26.3733000000000000	46.4333999999999990	39.7796999999999980	25.7591000000000000	11.4762000000000000	17.7668000000000000	NaN	6.0223000000000004	16.3161999999999980	10.8530000000000000	19.6250000000000000	14.3110000000000000	17.9586000000000010	60.3492999999999990	NaN	21.0025000000000010	52.4804000000000030	40.8967999999999990	40.9891000000000010	24.2877000000000010	25.5462999999999990	9.1716999999999995	35.0433000000000020	NaN	10.2982000000000000	26.7188000000000020	6.4531000000000001	19.6426000000000020	30.6250000000000000	10.3230000000000000	22.5943000000000000	12.8492000000000000	9.8831000000000007	NaN	20.6250000000000000	13.6366999999999990	15.9118999999999990	41.3547000000000010	13.0025000000000000	27.8398000000000000	10.6978000000000010	NaN	23.4300000000000000	36.8427999999999970	39.5658999999999990	52.1683999999999980	24.6221999999999990	17.3738999999999990	41.1968999999999990	12.5313000000000000	20.0847000000000020	62.0656000000000030	23.8928000000000010	37.5720000000000030	17.9063000000000020	4.7245999999999997	2.9453000000000000	32.2130000000000010	30.5097999999999980	58.4440999999999990	NaN	NaN	16.8301000000000020	39.9249000000000010	18.8521000000000000	71.4158999999999930	30.2530000000000000	40.2145000000000010	17.8482999999999980	12.3977000000000000	19.1799000000000000	18.8212000000000010	1.1716000000000000	50.8254999999999980	16.3347000000000020	23.9850999999999990	41.9739000000000000	29.0199000000000000	29.0650000000000010	51.0525999999999980	16.3338000000000000	22.3731000000000010	44.0981000000000020	7.7051999999999996	NaN	5.8992000000000004	20.8111000000000000	7.1250000000000000	19.9688000000000020	95.0267999999999940	NaN	32.0559000000000010	4.2736000000000001	36.6450000000000030	24.8438000000000020	39.8393999999999980	44.7655000000000030	22.5277999999999990	NaN	30.3916000000000000	131.8750000000000000	32.1875000000000000	6.6230000000000002	19.4579999999999980	449.8800000000000000	7.7187999999999999	44.7640000000000030	46.2000000000000030	NaN	13.8899000000000010	41.8393999999999980	12.6355000000000000	29.0394000000000010	10.2776000000000000	20.2041000000000000	NaN	23.1413000000000010	7.4724000000000004	43.1685000000000020	47.5814000000000020	59.9292999999999980	21.4308000000000010	35.8125000000000000	18.8823000000000010	18.9134999999999990	6.4805000000000001	9.0625000000000000	17.9730999999999990	20.5106000000000000	33.5354999999999990	66.2610999999999990	21.3469000000000020	18.6447000000000000	35.0902999999999990	12.2993000000000010	30.1563000000000020	18.2961999999999990	9.8034999999999997	6.2023000000000001	10.8309000000000000	82.7500000000000000	22.7196000000000000	14.9400999999999990	21.6953999999999990	12.7857000000000000	30.6530999999999980	42.1118000000000020	17.8066000000000000	22.2134000000000000	NaN	35.7811000000000020	37.4153999999999980	34.8628000000000000	NaN	26.2256000000000000	NaN	23.9888000000000010	31.8893999999999980	13.5466000000000000	33.5816999999999980	32.8716000000000010	47.9063000000000020	14.1062999999999990	40.5073999999999970	NaN	35.9938999999999960	62.5260000000000030	9.1996000000000002	45.1011999999999990	40.1060999999999980	42.5672000000000000	55.3564000000000010	7.1874000000000002	33.5000000000000000	12.0921000000000000	NaN	9.7180000000000000	10.5634999999999990	13.2500000000000000	19.4424999999999990	13.9078000000000000	22.7543000000000010	10.3808000000000010	20.3131999999999980	23.2424000000000000	7.1250000000000000	19.3700000000000010	17.4797000000000010	20.9555000000000010	30.4375000000000000	41.3215000000000000	10.3397000000000010	2.8565000000000000	NaN	23.7033999999999980	16.7520999999999990	35.2211000000000000	NaN	10.8750000000000000	41.5886000000000000	32.2862000000000010	17.1094000000000010	7.3902999999999999	22.7571000000000010	8.3359000000000005	33.6323000000000010	2.9954999999999998	19.8654000000000010	12.2288999999999990	6.6006999999999998	11.3125000000000000	17.7363000000000000	28.7329000000000010	33.3138999999999970	NaN	44.4802000000000040	NaN	6.3316999999999997	26.3883000000000010	4.8414000000000001	18.6679999999999990	13.9656000000000000	18.2862000000000010	46.1400000000000010	19.9862000000000000	12.4976000000000000	40.5574000000000010	5.8514999999999997	NaN	17.4172000000000010	10.3125000000000000	19.2284000000000010	34.5786000000000020	44.4763999999999980	28.5000000000000000	17.9485999999999990	9.3103999999999996	17.6480999999999990	18.9315000000000000	13.5936000000000000	28.4080000000000010	17.4056000000000000	30.8524999999999990	NaN	NaN	NaN	28.2780999999999980	22.3355999999999990	50.3239999999999980	20.3950999999999990	6.6406000000000001	24.5763000000000000	9.5310000000000006	23.0639000000000000	42.0499000000000010	NaN	17.1430000000000010	13.4894000000000000	9.7505000000000006	25.0908000000000020	20.2454000000000000	14.2277000000000000	NaN	16.5000000000000000	17.7570000000000010	11.3996000000000000	8.5357000000000003	12.0158000000000000	15.3432999999999990	14.3416000000000000	23.2296000000000010	59.3320000000000010	6.5925000000000002	6.6119000000000003	34.0401000000000020	NaN	8.0447000000000006	16.7650000000000010	23.3168000000000010	36.5872999999999990	14.0690000000000010	5.8047000000000004	17.2924000000000010	40.0675000000000030	23.8108000000000000	NaN	10.3917000000000000	18.9345000000000000	NaN	43.8125000000000000	13.5625000000000000	33.1514000000000020	15.9050999999999990	1.2800000000000000	37.5234000000000020	24.6672000000000010	12.1123999999999990	64.9375000000000000	29.7664000000000010	NaN	44.6766000000000010	16.7090000000000000	28.2288000000000000	16.1765000000000010	5.9724000000000004	73.1239999999999950	47.5743999999999970	26.7863000000000010	64.5802000000000050	28.5000000000000000	6.4032000000000000	28.2166999999999990	38.7547000000000000	57.7849999999999970	22.1198000000000010	18.8349000000000010	23.3151000000000010	6.4687999999999999	22.3318000000000010	49.9375000000000000	4.2946999999999997	35.3577000000000010	17.1420999999999990	93.5000000000000000	51.0895000000000010	27.9973999999999990	24.9375000000000000	30.9727000000000000	8.7477999999999998	17.4282000000000000	9.5751000000000008	12.4375000000000000	11.8058999999999990	53.5891999999999980	NaN	14.5000000000000000	12.9940000000000000	28.2658999999999980	15.2492000000000000	50.3706999999999990	36.5000000000000000	NaN	30.2780999999999980	43.3759000000000010	48.4962999999999980	2.8750000000000000	19.9445000000000010	15.0925999999999990	37.6935000000000000	44.2316000000000000	35.2094000000000020	25.4780000000000020	1.9800000000000000	57.5000000000000000	10.1639000000000000	52.9656999999999980	NaN
19991202.0000000000000000	43.7500000000000000	21.2459999999999990	25.7813000000000020	5.9980000000000002	NaN	31.9246000000000020	22.4139000000000020	7.6319999999999997	12.3138000000000010	18.7188000000000020	16.6404999999999990	30.8822000000000010	10.3786000000000000	43.8697000000000020	7.0919999999999996	15.3762000000000010	16.4048000000000020	28.9375000000000000	6.8829000000000002	22.4620000000000000	24.0627000000000000	65.5814000000000020	16.5155999999999990	NaN	214.5625000000000000	23.1258000000000020	27.0172999999999990	24.9556000000000000	13.9688000000000000	44.6250000000000000	NaN	26.3750000000000000	86.0000000000000000	8.1898999999999997	29.8924999999999980	26.6439999999999980	16.2334000000000000	13.8558000000000000	25.5152000000000000	11.9393999999999990	12.7049000000000000	22.8274000000000010	NaN	17.8158999999999990	13.3729999999999990	51.6118000000000020	8.1875000000000000	40.6606000000000020	25.4887000000000010	27.3750000000000000	34.6918000000000010	19.4636000000000000	29.8383000000000000	15.5938000000000000	23.9966000000000010	25.0488000000000000	19.3958000000000010	23.1727999999999990	38.3748999999999970	23.9411999999999980	27.6800999999999990	30.6994000000000010	21.5762000000000000	15.8603000000000010	20.4594999999999980	8.9238999999999997	34.3102000000000020	8.0223999999999993	NaN	10.0211000000000010	56.7134000000000000	26.6935000000000000	65.1337999999999940	9.2344000000000008	38.0229000000000000	10.4063000000000000	NaN	31.0328000000000020	15.0004000000000010	25.6599000000000000	63.1533999999999980	14.5472000000000000	33.1008000000000000	10.5439000000000010	21.6170000000000010	15.2151999999999990	NaN	7.3982999999999999	NaN	48.0371000000000020	19.5492999999999990	38.3164999999999980	72.6680000000000060	20.3395000000000010	5.3418999999999999	6.6111000000000004	2.9384999999999999	7.4966999999999997	23.6830000000000000	155.3125000000000000	23.7260999999999990	NaN	50.5863000000000010	35.2051000000000020	35.7635999999999970	26.9362999999999990	NaN	18.8168000000000010	27.0478999999999980	12.9231000000000000	3.2347999999999999	44.4863000000000000	NaN	NaN	21.0020999999999990	46.2415999999999980	NaN	38.8507000000000030	32.9375000000000000	65.0000000000000000	46.4375000000000000	16.1672000000000010	30.1236999999999990	44.1912000000000020	2.3769999999999998	9.7158999999999995	48.3438000000000020	27.2500000000000000	2.6135999999999999	19.0056000000000010	23.8111999999999990	7.5026000000000002	17.5322999999999990	52.3425000000000010	6.0547000000000004	18.1844000000000000	34.0504000000000030	43.0625000000000000	6.9958999999999998	18.3750000000000000	7.3933000000000000	3.7616999999999998	24.2409000000000000	26.7313000000000010	47.5155000000000030	41.1674000000000010	26.2704999999999980	11.4762000000000000	18.2863000000000010	NaN	5.9768999999999997	16.7791000000000000	11.0335000000000000	20.0313000000000020	14.3110000000000000	17.9586000000000010	63.5101999999999980	NaN	20.7547999999999990	52.2712999999999970	40.8967999999999990	43.9016000000000020	25.2686999999999990	25.9661000000000010	9.1716999999999995	33.7834999999999970	NaN	10.4590999999999990	25.5625000000000000	5.8125000000000000	19.6426000000000020	31.0629999999999990	10.4330000000000000	22.9604000000000000	13.0196000000000010	10.5662000000000000	NaN	21.0078999999999990	13.7454000000000000	15.9118999999999990	41.1698000000000020	13.3657000000000000	27.3569999999999990	10.5860000000000000	NaN	23.3888000000000000	36.0137000000000000	40.9080999999999970	51.9696000000000000	25.1295000000000000	17.3738999999999990	40.1512999999999990	13.0000000000000000	20.0484000000000010	62.5578000000000000	23.2624999999999990	39.2682000000000000	17.6563000000000020	4.7245999999999997	2.8828000000000000	32.1593000000000020	32.3093000000000000	58.8498999999999980	NaN	NaN	16.8301000000000020	42.6471000000000020	18.7708000000000010	72.8490000000000040	29.5807000000000000	39.8470000000000010	18.3926000000000020	12.4430999999999990	19.1250000000000000	18.9941999999999990	1.1716000000000000	51.8220999999999990	16.3714000000000010	24.2714000000000000	42.2563999999999990	29.3238999999999980	29.0054000000000020	49.4209000000000030	16.2882000000000000	22.6136000000000020	46.0972999999999970	7.7613000000000003	NaN	5.8992000000000004	20.8377000000000020	7.0625000000000000	20.0938000000000020	95.8375000000000060	NaN	31.8927000000000010	4.3048999999999999	36.4341999999999970	25.8750000000000000	39.0244000000000000	44.7655000000000030	21.4773000000000000	NaN	30.0170999999999990	133.0000000000000000	33.3750000000000000	6.3624999999999998	19.4040000000000000	466.0000000000000000	7.8281000000000001	43.8697999999999980	45.1480999999999990	NaN	14.0129000000000000	42.3141000000000030	12.6630000000000000	27.7194000000000000	10.4548000000000010	20.3012000000000010	NaN	22.7700000000000000	7.4724000000000004	44.9671999999999980	47.0206000000000020	60.2100999999999970	21.4930999999999980	35.6875000000000000	18.7718999999999990	18.9134999999999990	6.5297999999999998	9.2187999999999999	17.9730999999999990	20.0506999999999990	34.7000000000000030	67.0763000000000030	22.3967999999999990	18.5289000000000000	35.0902999999999990	12.5305000000000000	30.1563000000000020	18.2961999999999990	9.9487000000000005	6.3685000000000000	10.8725000000000000	83.4375000000000000	22.1122000000000010	15.3795000000000000	22.7442999999999990	12.5614000000000010	30.6530999999999980	42.9866999999999990	19.5025000000000010	21.9732999999999980	NaN	35.6623999999999980	37.1724999999999990	35.3258000000000010	NaN	25.9670999999999990	NaN	23.6851999999999980	32.0715999999999970	13.5466000000000000	33.5550000000000000	32.9799999999999970	54.2500000000000000	14.5103000000000010	40.0606000000000010	NaN	37.2344000000000010	59.9161000000000000	9.2866000000000000	45.2663000000000010	40.9870000000000020	43.3982999999999990	55.3564000000000010	7.1726999999999999	32.5313000000000020	12.0921000000000000	NaN	9.9512999999999998	10.5634999999999990	14.0625000000000000	19.6886000000000010	13.9078000000000000	22.2082000000000010	10.5927000000000010	20.9791999999999990	23.1904000000000000	7.4062999999999999	21.4400000000000010	17.4797000000000010	21.2664000000000010	31.3438000000000020	40.8127000000000000	10.6173000000000000	3.0112999999999999	NaN	23.4288999999999990	16.7520999999999990	37.2486999999999990	NaN	11.0000000000000000	41.5886000000000000	33.5000000000000000	17.7344000000000010	7.3902999999999999	22.8291000000000000	8.4558999999999997	33.6762999999999980	3.0226999999999999	20.0352000000000000	12.2288999999999990	6.7084000000000001	11.3828000000000000	17.7041000000000000	28.7852000000000000	33.2032000000000020	NaN	45.9117000000000030	NaN	6.2876000000000003	26.3883000000000010	4.8414000000000001	18.8659000000000000	14.2089000000000000	18.2862000000000010	46.5069999999999980	19.9862000000000000	12.4976000000000000	40.7351999999999990	5.8997999999999999	NaN	17.6101999999999990	10.3125000000000000	19.5824000000000000	35.0779000000000000	45.0882000000000010	28.4688000000000020	17.5023000000000020	9.4468999999999994	18.1417000000000000	18.9315000000000000	13.9011999999999990	29.2762999999999990	17.4056000000000000	33.0602000000000020	NaN	NaN	NaN	27.4485999999999990	22.3355999999999990	48.3504999999999970	20.5021999999999980	6.6718999999999999	23.7411999999999990	9.8439999999999994	23.1886000000000010	40.1623999999999980	NaN	16.4371000000000010	13.2822999999999990	10.4004999999999990	25.4791999999999990	19.7746000000000000	14.2277000000000000	NaN	16.1405999999999990	17.9825000000000020	11.4640000000000000	8.4459000000000000	12.1135000000000000	15.4651000000000000	15.3112999999999990	23.0437000000000010	59.8104999999999980	6.7800000000000002	6.6607000000000003	33.7751000000000020	NaN	8.3062000000000005	15.9537999999999990	23.4116000000000000	36.8979000000000000	14.0690000000000010	5.5625000000000000	17.4935000000000010	39.9232000000000010	23.1139000000000010	NaN	10.2617999999999990	19.1632000000000000	NaN	46.9375000000000000	13.9375000000000000	32.0326000000000020	15.9050999999999990	1.2649999999999999	38.2543999999999970	24.6672000000000010	9.4999000000000002	66.7500000000000000	29.4128000000000010	NaN	44.6766000000000010	16.6505000000000010	28.2288000000000000	16.2941000000000000	5.9724000000000004	76.3354999999999960	49.1499000000000020	27.5089000000000010	63.0146000000000020	29.0000000000000000	6.5503000000000000	28.0522999999999990	38.3973000000000010	57.5670000000000000	22.2001999999999990	18.9240999999999990	23.3151000000000010	6.5156000000000001	22.4249000000000010	49.1875000000000000	4.3078000000000003	35.8620999999999980	17.2445999999999980	93.0000000000000000	51.8466999999999980	27.6369000000000010	24.6250000000000000	31.0232999999999990	8.6989000000000001	17.5220999999999980	9.6971000000000007	12.0000000000000000	11.8058999999999990	53.5891999999999980	NaN	14.6575000000000010	12.6044000000000000	28.6877999999999990	15.2492000000000000	51.5167000000000000	37.6899999999999980	NaN	30.2552999999999980	43.8310000000000030	47.5568999999999990	2.7500000000000000	20.3475000000000000	15.0459999999999990	37.8320000000000010	44.0251000000000020	36.8200000000000000	25.5976000000000000	1.9921000000000000	57.5938000000000020	10.0254999999999990	53.3761999999999970	NaN
19991203.0000000000000000	44.9375000000000000	22.3123000000000000	28.0469000000000010	5.8456999999999999	NaN	33.3541000000000030	22.5625000000000000	7.6319999999999997	12.4923000000000000	18.6250000000000000	17.6668999999999980	34.2258000000000000	10.6996000000000000	44.7650000000000010	7.5286999999999997	15.4880000000000000	16.2094999999999980	29.2188000000000020	7.3592000000000004	23.0485000000000010	23.6814000000000000	66.2976000000000030	16.6267000000000000	NaN	218.3750000000000000	23.6790999999999980	30.3554999999999990	27.2327000000000010	14.9375000000000000	45.6875000000000000	NaN	27.0000000000000000	92.5000000000000000	8.1334000000000000	30.3135000000000010	26.6909999999999990	15.7886000000000010	14.1150000000000000	26.1142000000000000	12.7133000000000000	13.5410000000000000	22.7423000000000000	NaN	17.6778000000000010	13.3729999999999990	51.6118000000000020	8.1250000000000000	41.4527000000000000	25.7104000000000000	27.8750000000000000	33.4378000000000030	19.4636000000000000	29.9209000000000000	16.6875000000000000	24.1269999999999990	24.8974000000000010	19.3958000000000010	23.1727999999999990	38.5938999999999980	23.8310999999999990	27.8468000000000020	30.5753999999999980	21.4111000000000010	16.6096000000000000	19.6428000000000010	8.9085999999999999	34.8547999999999970	8.0223999999999993	NaN	10.1006000000000000	56.4682999999999990	26.6935000000000000	67.6086999999999990	9.4154999999999998	38.0229000000000000	10.4063000000000000	NaN	30.8774000000000020	15.2636000000000000	25.6309000000000000	64.9110000000000010	14.6646000000000000	32.4793999999999980	10.5714000000000010	22.1454999999999980	15.4621000000000000	NaN	7.3552000000000000	NaN	46.7160000000000010	19.5492999999999990	41.1148999999999990	72.6680000000000060	20.2960999999999990	5.1562999999999999	6.7286000000000001	2.9384999999999999	7.5099999999999998	23.4651000000000000	163.6250000000000000	23.0898000000000000	NaN	53.0816000000000020	35.4495999999999970	35.7635999999999970	27.5138000000000000	NaN	18.6123000000000010	26.6892999999999990	12.9231000000000000	3.3561000000000001	43.1882000000000020	NaN	NaN	21.0020999999999990	47.1602999999999990	NaN	38.8507000000000030	34.1250000000000000	70.0000000000000000	47.4375000000000000	16.1672000000000010	31.1569000000000000	44.2517000000000000	2.5884000000000000	9.7158999999999995	50.8750000000000000	26.0000000000000000	2.6408000000000000	18.2549999999999990	23.7788000000000000	7.4665999999999997	17.5322999999999990	53.1604000000000030	6.0547000000000004	17.8843999999999990	34.6548999999999980	45.3750000000000000	7.0324999999999998	18.3750000000000000	7.4382000000000001	3.8468000000000000	24.3647999999999990	27.1490000000000010	48.0073999999999970	42.2659000000000020	26.7542000000000010	11.4762000000000000	18.3902000000000000	NaN	5.9625000000000004	16.8081999999999990	10.9750000000000000	21.2344000000000010	14.4149999999999990	18.0892000000000020	64.3881999999999980	NaN	20.7547999999999990	51.3825999999999960	41.1965999999999970	46.8447000000000030	25.7395000000000000	25.5184000000000000	8.8658999999999999	34.2415999999999980	NaN	10.4590999999999990	27.3594000000000010	6.1952999999999996	21.6371000000000000	31.1250000000000000	10.3821999999999990	22.7512000000000010	12.9954000000000000	10.6572999999999990	NaN	20.7780999999999980	13.8539999999999990	15.9682000000000000	41.0465999999999980	13.7288999999999990	26.6022000000000000	10.4369000000000000	NaN	23.9250000000000010	36.8759999999999980	40.9080999999999970	52.9136999999999990	25.4060999999999990	17.6235000000000000	41.4059999999999990	13.0000000000000000	20.0484000000000010	64.1436000000000060	23.5489999999999990	39.1413000000000010	18.7500000000000000	4.6161000000000003	2.8730000000000002	32.4277000000000020	31.9820999999999990	59.2558000000000010	NaN	NaN	17.0776000000000000	42.0422000000000010	18.6122000000000010	74.9985999999999960	28.7403000000000010	39.8470000000000010	18.1061000000000010	12.4884000000000000	18.5203999999999990	18.8212000000000010	1.1742999999999999	52.9382999999999980	16.4251000000000000	24.2714000000000000	43.3862000000000020	28.8896000000000020	29.0352000000000000	50.5773000000000010	16.2882000000000000	22.3731000000000010	47.6619000000000030	7.7613000000000003	NaN	5.8992000000000004	21.5819000000000010	7.0625000000000000	21.1875000000000000	101.7441000000000000	NaN	31.8927000000000010	4.3048999999999999	38.0602000000000020	28.0625000000000000	40.9421000000000030	47.4129999999999970	21.5355999999999990	NaN	30.2475999999999980	138.9375000000000000	35.0000000000000000	6.3103999999999996	18.1607999999999980	500.0000000000000000	7.8437999999999999	42.9213000000000020	51.4799999999999970	NaN	13.8899000000000010	43.9076999999999980	12.3192000000000000	27.6138000000000010	10.4842999999999990	20.3012000000000010	NaN	27.2844000000000020	7.4863999999999997	49.5568999999999990	49.8716999999999970	61.3333999999999970	21.0569999999999990	35.6875000000000000	18.9375000000000000	19.2807999999999990	6.4066000000000001	9.0625000000000000	17.6774999999999980	19.8668000000000010	37.3781000000000030	67.3092000000000040	22.2412999999999990	18.5868000000000000	35.0902999999999990	13.5477000000000010	32.5938000000000020	18.1076000000000010	10.0841999999999990	6.3499999999999996	11.1214000000000000	81.5000000000000000	23.0233999999999990	15.4087999999999990	21.5298000000000020	12.4492999999999990	30.6530999999999980	42.5784000000000020	20.4387000000000010	22.3335000000000010	NaN	35.6623999999999980	39.0553999999999990	36.0611999999999990	NaN	26.7138999999999990	NaN	23.8370000000000000	32.0715999999999970	13.0694000000000000	34.0638000000000010	33.8479000000000030	64.7500000000000000	14.3420000000000010	40.4080999999999970	NaN	37.9630000000000010	61.2734999999999990	9.1126000000000005	47.1062999999999970	42.1982000000000000	43.2136000000000000	57.3245999999999970	7.2907999999999999	33.2500000000000000	12.1723000000000000	NaN	9.8734999999999999	10.5634999999999990	14.1250000000000000	19.6886000000000010	14.6562000000000000	22.2082000000000010	10.7692000000000000	20.0635000000000010	23.1904000000000000	7.4062999999999999	21.2500000000000000	17.1739000000000000	22.3857000000000000	34.7500000000000000	41.8303000000000010	11.0007000000000000	3.2536000000000000	NaN	23.4288999999999990	17.3671000000000010	37.2486999999999990	NaN	10.5625000000000000	41.9425999999999990	33.5000000000000000	19.4063000000000020	7.4326999999999996	24.2694000000000010	8.1560000000000006	33.8964000000000000	3.0533999999999999	20.0352000000000000	12.0459000000000000	6.9546000000000001	11.4688000000000000	17.8972000000000020	30.4601000000000010	33.4891000000000010	NaN	46.2184999999999990	NaN	6.2876000000000003	26.5644999999999990	4.7813999999999997	18.8096000000000000	14.4036000000000010	17.7945999999999990	46.3498000000000020	20.1000000000000010	12.6922999999999990	41.9804000000000030	5.8997999999999999	NaN	17.6585000000000000	10.2500000000000000	19.9233000000000010	35.0155000000000030	46.6176000000000030	30.2108999999999990	17.5023000000000020	9.3923000000000005	18.1417000000000000	18.7601000000000010	13.5936000000000000	28.5320000000000000	17.7152999999999990	33.0602000000000020	NaN	NaN	NaN	26.9915999999999980	24.2570000000000010	48.3504999999999970	21.1981000000000000	7.1250000000000000	25.4512000000000000	10.0000000000000000	22.9704000000000010	43.4131000000000000	NaN	16.4371000000000010	13.8888000000000000	10.4004999999999990	25.4791999999999990	19.9315000000000000	14.2277000000000000	NaN	16.5155999999999990	18.2079999999999980	11.6473999999999990	8.5656999999999996	12.3415000000000000	15.3432999999999990	15.0051000000000010	23.0437000000000010	60.2888999999999980	6.7500000000000000	6.7339000000000002	33.9812000000000010	NaN	8.1051000000000002	16.3324000000000000	23.6010999999999990	36.5251999999999980	14.3467000000000000	6.4375000000000000	17.5796999999999990	40.6927999999999980	23.9270000000000000	NaN	10.1968000000000000	19.0259000000000000	NaN	50.0000000000000000	14.0000000000000000	32.6803000000000030	14.4895000000000000	1.2649999999999999	38.5589999999999970	24.9354000000000010	9.7372999999999994	68.8125000000000000	29.4128000000000010	NaN	46.1405000000000030	17.2931999999999990	29.6779000000000010	16.2941000000000000	5.9724000000000004	82.5116000000000010	50.6636000000000020	28.0389000000000020	61.2533999999999990	32.0000000000000000	6.8082000000000003	28.3810000000000000	38.3462000000000030	58.8207999999999980	22.2806000000000000	18.9240999999999990	24.0185999999999990	6.7187999999999999	22.7504999999999990	50.2500000000000000	4.4386999999999999	36.0861999999999980	17.1080000000000010	99.5000000000000000	52.3010000000000020	28.8385000000000000	25.0625000000000000	31.2763999999999990	8.5279000000000007	17.9449000000000010	9.3922000000000008	12.0000000000000000	12.4097000000000010	54.7340000000000020	NaN	15.1400000000000010	12.9662000000000010	28.8987000000000020	15.0109999999999990	50.8072999999999980	37.3100000000000020	NaN	29.6392999999999990	46.2888000000000020	48.4962999999999980	2.8750000000000000	22.3116999999999980	15.0459999999999990	37.3239000000000020	47.5435000000000020	36.4313000000000000	25.7171999999999980	1.9317000000000000	62.4960999999999980	9.9332999999999991	54.1460999999999970	NaN
19991206.0000000000000000	45.2500000000000000	22.6282999999999990	28.6405999999999990	5.8456999999999999	NaN	33.3541000000000030	22.0793000000000000	7.7484000000000002	12.4923000000000000	18.6250000000000000	16.5472000000000000	33.8609999999999970	10.3786000000000000	45.5529000000000010	8.1761999999999997	15.9667999999999990	16.2421000000000010	29.2188000000000020	7.3746000000000000	23.3125000000000000	23.0562000000000000	66.3773000000000050	16.6267000000000000	NaN	208.1875000000000000	23.9004000000000010	28.8891999999999990	27.1398000000000010	15.5000000000000000	46.1250000000000000	NaN	27.3750000000000000	86.8750000000000000	8.8111999999999995	29.7722000000000020	26.6909999999999990	15.2882000000000000	14.1638000000000000	25.2197000000000000	12.4922000000000000	13.9080999999999990	22.7423000000000000	NaN	17.6778000000000010	13.7060999999999990	51.7747999999999990	8.1250000000000000	41.4527000000000000	25.7104000000000000	27.2500000000000000	33.4378000000000030	19.0395000000000000	29.8108000000000000	16.9688000000000020	24.1922000000000000	23.1307000000000010	19.3395000000000010	22.7639000000000000	40.1813999999999960	23.3357999999999990	27.6800999999999990	30.5134000000000010	20.9157000000000010	16.8593000000000010	20.5412000000000000	8.6938999999999993	35.2905000000000020	8.1806999999999999	NaN	10.3392000000000000	55.6839999999999970	26.1302999999999980	70.9500000000000030	9.5966000000000005	38.7916000000000030	10.2500000000000000	NaN	30.5147000000000010	15.3294000000000000	26.3245000000000000	66.0625000000000000	14.6255000000000010	32.4793999999999980	10.6265000000000000	22.1454999999999980	15.3722999999999990	NaN	7.3445000000000000	NaN	43.7137000000000030	19.0209000000000010	42.8371000000000000	76.0323000000000060	20.8166000000000010	5.2439000000000000	6.6845999999999997	2.8159999999999998	7.5635000000000003	23.4651000000000000	169.9687999999999900	23.5443000000000000	NaN	53.0816000000000020	39.1167999999999980	36.0974999999999970	28.4624999999999990	NaN	18.5538999999999990	27.3553000000000000	12.6620000000000010	3.5583000000000000	48.6163000000000030	NaN	NaN	20.6511999999999990	48.0484000000000010	NaN	39.7796000000000020	35.9375000000000000	70.3125000000000000	48.0000000000000000	15.9982000000000010	32.0510999999999980	44.2517000000000000	2.7275999999999998	9.5410000000000004	50.5000000000000000	27.7500000000000000	2.8858000000000001	18.8255000000000020	23.4063000000000020	7.7667000000000002	17.3374999999999990	53.0512999999999980	6.0004000000000000	17.7043000000000000	34.0758000000000010	44.8750000000000000	7.0324999999999998	18.8750000000000000	7.3634000000000004	3.8468000000000000	25.0459000000000000	26.6119999999999980	48.0073999999999970	43.2488999999999990	26.7265000000000010	11.1552000000000010	18.3902000000000000	NaN	5.9996000000000000	15.6075000000000000	10.9115000000000000	22.2188000000000020	14.5711999999999990	18.2851000000000000	64.6222999999999960	NaN	21.4483000000000000	51.0168000000000030	40.3571000000000030	46.4461999999999970	26.4457999999999980	25.7701999999999990	8.8658999999999999	34.1270999999999990	NaN	10.4590999999999990	27.5155999999999990	6.2108999999999996	20.9118999999999990	30.3129999999999990	10.3145000000000010	22.7512000000000010	13.0684000000000000	10.4750999999999990	NaN	21.4163000000000000	13.8539999999999990	15.7995000000000000	41.6013000000000020	13.8378999999999990	27.0850000000000010	10.4741000000000000	NaN	24.3786999999999980	37.9371000000000010	38.9823000000000020	53.1621000000000020	24.6221999999999990	17.6983999999999990	40.7785999999999970	13.0938000000000000	20.1209999999999990	66.3310000000000030	23.9213999999999980	39.3200999999999960	19.0938000000000020	4.5667999999999997	2.8047000000000000	31.5687000000000000	34.3541999999999990	62.5026999999999970	NaN	NaN	17.0776000000000000	40.7113000000000010	18.6122000000000010	75.6555000000000040	29.0764000000000000	40.7394000000000030	17.5903999999999990	12.5035000000000010	18.5203999999999990	19.6432000000000000	1.1742999999999999	53.6957000000000020	16.4053000000000000	23.8134000000000010	41.1265000000000000	30.2363000000000000	29.0947999999999990	49.8733999999999970	16.6531999999999980	23.0947999999999990	49.6321000000000010	8.2443000000000008	NaN	5.8596000000000004	22.6716000000000020	6.9375000000000000	21.5000000000000000	104.6974000000000000	NaN	32.2736000000000020	4.3048999999999999	37.9699000000000030	29.7500000000000000	40.5585000000000020	48.9774000000000030	22.0609000000000000	NaN	31.0542000000000020	144.1875000000000000	35.4688000000000020	6.3103999999999996	18.0527000000000020	513.8800000000000000	7.7031000000000001	41.6206999999999990	50.6343999999999990	NaN	13.9514000000000000	44.4840999999999980	12.2642000000000010	27.5611000000000000	10.4548000000000010	20.1069000000000000	NaN	31.9274999999999980	7.4863999999999997	48.0683999999999970	50.1989000000000020	61.2772000000000010	19.3749000000000000	35.5625000000000000	19.0479999999999980	19.5868000000000000	6.5297999999999998	9.2187999999999999	18.0026000000000010	19.8668000000000010	37.8147999999999980	66.4358000000000000	21.8135000000000010	18.3552000000000000	35.3016999999999970	13.2395000000000000	32.6563000000000020	17.8920999999999990	10.2197000000000000	6.3499999999999996	10.9179999999999990	78.4375000000000000	23.0233999999999990	16.0532000000000000	21.5298000000000020	12.8979000000000000	31.4233000000000010	42.2867999999999990	20.6683999999999980	21.3729000000000010	NaN	36.6711999999999990	38.5694999999999980	36.3335999999999970	NaN	26.3691999999999990	NaN	23.9129000000000000	32.0715999999999970	13.4936000000000010	34.0638000000000010	34.1950999999999960	58.1875000000000000	14.1400000000000010	40.5073999999999970	NaN	39.5775999999999970	62.5260000000000030	9.0037000000000003	47.8611000000000000	41.9515999999999990	42.7749999999999990	57.7552000000000020	7.3055000000000003	34.3750000000000000	12.0519000000000000	NaN	9.8734999999999999	10.5035000000000010	13.5938000000000000	19.7870999999999990	14.2820000000000000	20.6306000000000010	10.6280000000000000	20.5352000000000000	23.2944000000000000	7.4375000000000000	21.1900000000000010	17.3777000000000010	24.1890000000000000	35.4063000000000020	42.4194999999999990	11.2916000000000010	3.1556000000000002	NaN	24.2525000000000010	17.1724999999999990	37.8280000000000030	NaN	10.6250000000000000	43.2699000000000000	34.5317000000000010	19.6875000000000000	7.3478000000000003	24.7735999999999980	8.0960999999999999	33.1921000000000030	3.0636000000000001	20.1484999999999990	12.1374000000000000	6.9699999999999998	11.6719000000000010	17.8005999999999990	31.0357999999999980	32.9172999999999970	NaN	46.2676000000000020	NaN	6.2434000000000003	26.5644999999999990	4.8113999999999999	19.1642000000000010	14.1115999999999990	17.7945999999999990	46.1400000000000010	20.0242000000000000	12.6922999999999990	42.5140999999999990	5.9160000000000004	NaN	17.6585000000000000	10.2500000000000000	20.0603000000000020	35.0155000000000030	47.4052999999999970	28.8905999999999990	17.8990000000000010	9.3376999999999999	17.8949000000000000	19.1508000000000000	13.5936000000000000	27.5396000000000000	17.1578000000000020	33.7224999999999970	NaN	NaN	NaN	26.7624000000000000	23.8367000000000000	50.1899999999999980	20.8768999999999990	6.8750000000000000	25.4512000000000000	10.1560000000000010	23.5626000000000000	41.2109999999999990	NaN	17.3447000000000000	13.9627000000000000	11.0815000000000000	24.8836000000000010	20.0885000000000000	14.2995000000000000	NaN	16.2188000000000020	19.1099999999999990	11.6770999999999990	8.3559999999999999	12.4065999999999990	14.8156000000000000	14.8520000000000000	23.2605000000000000	60.8736999999999990	6.6550000000000002	6.6363000000000003	33.9812000000000010	NaN	7.9843999999999999	15.8996999999999990	23.6010999999999990	35.4692000000000010	14.7014999999999990	6.2656000000000001	17.6658000000000010	41.4624000000000020	24.7691000000000020	NaN	10.2617999999999990	19.0259000000000000	NaN	50.1250000000000000	13.8125000000000000	32.0915000000000030	14.2395999999999990	1.2800000000000000	38.5589999999999970	25.7933999999999980	9.0248000000000008	64.8750000000000000	29.8253999999999980	NaN	46.8432000000000030	17.3808000000000010	29.6779000000000010	16.0588000000000020	5.8169000000000004	79.2382999999999950	50.6017999999999970	27.6053000000000000	59.1007000000000030	31.6250000000000000	6.7146999999999997	27.9426999999999990	38.1773999999999990	58.0031000000000030	16.8915000000000010	19.2811999999999980	24.4206000000000000	6.7656000000000001	22.4713999999999990	50.2500000000000000	4.3339999999999996	36.0861999999999980	17.1080000000000010	106.0000000000000000	52.5028999999999970	30.1602999999999990	25.0625000000000000	31.6812000000000000	8.5279000000000007	17.8275000000000010	9.6056000000000008	13.0000000000000000	12.6595999999999990	53.9163000000000000	NaN	15.0775000000000010	12.5765999999999990	28.6877999999999990	14.7727000000000000	51.1347000000000020	37.2500000000000000	NaN	29.8903000000000000	47.1081000000000000	47.5568999999999990	2.8750000000000000	23.5709000000000020	15.1849000000000010	37.3239000000000020	44.7899999999999990	36.5422999999999970	24.8201000000000000	1.9317000000000000	63.2500000000000000	9.8409999999999993	55.1724999999999990	NaN
19991207.0000000000000000	45.7500000000000000	22.5887999999999990	29.1405999999999990	5.7239000000000004	NaN	33.7205999999999970	21.7448000000000010	7.7484000000000002	12.5815000000000000	18.7188000000000020	15.5673999999999990	36.2319000000000030	10.5925999999999990	45.1589999999999990	7.9503000000000004	15.9667999999999990	16.4048000000000020	29.3750000000000000	7.3746000000000000	23.3125000000000000	23.0562000000000000	65.5018000000000030	16.6267000000000000	NaN	223.7500000000000000	23.7897000000000000	28.7020000000000020	28.1312000000000000	15.5000000000000000	45.0469000000000010	NaN	27.0000000000000000	88.0000000000000000	8.8111999999999995	29.0505000000000000	26.9259999999999980	14.5099000000000000	13.7591000000000000	25.3155000000000000	12.3263000000000000	13.9080999999999990	22.3164000000000020	NaN	17.6086999999999990	13.2064000000000000	51.7747999999999990	8.1250000000000000	41.7828000000000020	25.0454000000000010	30.2500000000000000	32.2884000000000030	18.5943000000000000	29.0124999999999990	17.0625000000000000	24.1922000000000000	20.8569000000000000	19.5086000000000010	22.7639000000000000	40.9478000000000010	22.6753000000000000	28.2359000000000010	31.4126000000000010	19.7047999999999990	16.8593000000000010	19.0302000000000010	8.6938999999999993	33.1120000000000020	8.2334999999999994	NaN	10.3193000000000000	54.0664000000000020	25.9614000000000010	74.1881000000000060	9.7402999999999995	39.3237999999999990	10.0938000000000000	NaN	30.5147000000000010	15.5596999999999990	26.1800000000000000	65.5170999999999990	14.5081000000000010	32.8108000000000000	10.5439000000000010	21.8434999999999990	15.2601000000000000	NaN	7.5488000000000000	NaN	41.7922000000000010	18.1990000000000020	43.0523000000000020	76.7051000000000020	20.8166000000000010	5.1974999999999998	6.6699000000000002	2.8159999999999998	7.5099999999999998	23.6648999999999990	178.7187999999999900	23.4079000000000010	NaN	53.4217999999999980	37.6987999999999990	36.0974999999999970	28.2563000000000000	NaN	18.6415000000000010	27.7138999999999990	12.4662000000000010	3.4773999999999998	48.1443000000000010	NaN	NaN	20.5702000000000000	47.8340999999999990	NaN	39.7796000000000020	36.9375000000000000	71.4375000000000000	50.4688000000000020	15.9982000000000010	32.5080999999999990	46.1888999999999970	2.8411000000000000	9.5410000000000004	53.1875000000000000	28.5625000000000000	2.9403000000000001	17.9848000000000000	23.6006000000000000	7.6886999999999999	17.3374999999999990	53.2149000000000000	5.8917999999999999	17.7043000000000000	33.7483000000000000	45.1250000000000000	7.0933999999999999	19.0000000000000000	7.3634000000000004	3.8809000000000000	25.0459000000000000	26.7910000000000000	48.7944000000000030	43.7691999999999980	26.3119000000000010	11.5162999999999990	18.4248000000000010	NaN	5.9768999999999997	14.6382999999999990	10.7018000000000000	22.0858999999999990	14.5191000000000000	18.2851000000000000	65.5588999999999940	NaN	20.6062000000000010	51.8530999999999980	40.3571000000000030	46.0476000000000030	26.6812000000000000	25.7701999999999990	7.5819000000000001	32.9819000000000030	NaN	10.4913000000000010	26.7500000000000000	5.8672000000000004	20.3075000000000010	32.0630000000000020	10.3315000000000000	22.1758999999999990	13.1659000000000010	10.5055000000000000	NaN	21.0334000000000000	13.8539999999999990	15.8557000000000010	40.0604999999999980	13.8378999999999990	25.9528000000000000	10.4369000000000000	NaN	23.9868999999999990	36.4117000000000030	41.4333000000000030	52.2676999999999980	24.6221999999999990	17.5487000000000000	40.8832000000000020	12.9530999999999990	19.8305000000000010	66.3310000000000030	22.9187000000000010	39.9517999999999990	18.4375000000000000	4.5372000000000003	2.7772999999999999	31.5687000000000000	35.3357000000000030	60.6762999999999980	NaN	NaN	17.2425999999999990	42.3446000000000000	18.4536000000000020	73.8044000000000010	28.0120000000000000	40.3194999999999980	16.9027999999999990	12.5488000000000000	19.0151000000000000	18.4750000000000010	1.1716000000000000	53.2173000000000020	16.1255999999999990	23.4699999999999990	39.4318000000000030	30.1494000000000000	29.0947999999999990	49.6220000000000000	16.1056999999999990	22.7941000000000000	47.8937000000000030	8.2667999999999999	NaN	5.8596000000000004	22.6716000000000020	7.0625000000000000	21.6875000000000000	108.4034999999999900	NaN	33.0900000000000030	4.7550999999999997	37.6989000000000020	29.7500000000000000	41.4215000000000020	48.9774000000000030	22.0609000000000000	NaN	31.0542000000000020	147.6250000000000000	37.4375000000000000	6.2657999999999996	17.4041000000000000	514.0000000000000000	7.7500000000000000	42.0272000000000010	49.8299999999999980	NaN	13.9514000000000000	42.5854000000000000	11.6315000000000010	27.5082999999999980	10.4252000000000000	19.0383999999999990	NaN	29.9921000000000010	7.4724000000000004	51.3556000000000030	50.1989000000000020	56.1661000000000000	15.9484999999999990	35.1250000000000000	18.3854000000000010	19.3572999999999990	6.6776999999999997	9.2187999999999999	17.9730999999999990	19.6828000000000000	38.1349999999999980	64.9218999999999940	22.1634999999999990	17.6024999999999990	34.0863000000000010	13.5169000000000000	35.6250000000000000	17.8920999999999990	10.2197000000000000	6.4791999999999996	11.2501000000000000	76.3750000000000000	21.8691999999999990	15.4674000000000000	21.9714999999999990	13.3465000000000010	31.4233000000000010	42.6366999999999980	20.6154000000000010	21.3729000000000010	NaN	37.0272000000000010	37.6584000000000000	34.9716999999999980	NaN	27.3171000000000000	NaN	23.5333000000000010	32.7398000000000020	13.7852000000000000	34.6529000000000020	33.8479000000000030	58.2500000000000000	14.2073000000000000	40.5073999999999970	NaN	42.0782999999999990	60.8209999999999980	8.6884999999999994	48.5687000000000000	41.7314000000000010	41.9669999999999990	58.8008000000000020	7.4383999999999997	34.4063000000000020	12.0252000000000000	NaN	9.6143999999999998	10.2334000000000000	13.1250000000000000	19.2948999999999980	13.6583000000000010	21.2374000000000010	10.6280000000000000	20.5352000000000000	23.6844000000000000	7.3125000000000000	21.6200000000000010	17.4286999999999990	24.0024000000000020	39.0155999999999990	41.2143999999999980	11.4239000000000000	3.2587000000000002	NaN	24.6186000000000010	17.1724999999999990	37.8858999999999990	NaN	10.1875000000000000	43.0929000000000000	35.9275000000000020	19.5780999999999990	6.9654999999999996	24.8456000000000010	8.0960999999999999	32.3997000000000030	3.0998999999999999	20.1484999999999990	12.0154000000000000	6.7237999999999998	11.5938000000000000	17.8005999999999990	30.6694000000000000	31.8751000000000000	NaN	46.3984999999999990	NaN	6.1158000000000001	27.9033000000000020	4.8712999999999997	19.0646999999999980	14.4036000000000010	18.8760000000000010	41.5260000000000030	20.3654000000000010	11.9133000000000000	42.5140999999999990	5.8676000000000004	NaN	17.4172000000000010	10.2500000000000000	20.0603000000000020	36.2169999999999990	48.9117999999999990	29.1250000000000000	17.2545000000000000	9.2285000000000004	17.4012999999999990	18.4174000000000010	13.5936000000000000	25.9269000000000000	17.1578000000000020	33.7224999999999970	NaN	NaN	NaN	26.6480999999999990	23.8367000000000000	50.1450999999999990	20.3950999999999990	6.7500000000000000	24.8547000000000010	9.8439999999999994	23.4379999999999990	39.9525999999999970	NaN	16.9412999999999980	14.1698000000000000	10.9577000000000010	24.1068000000000000	20.1931000000000010	13.8869000000000010	NaN	17.0625000000000000	19.1099999999999990	11.6127000000000000	8.0864999999999991	12.6996000000000000	14.2472999999999990	14.8520000000000000	22.7340000000000020	59.3320000000000010	6.7350000000000003	6.3192000000000004	35.2180000000000040	NaN	7.9843999999999999	15.8996999999999990	23.6010999999999990	32.4254000000000030	15.3493999999999990	6.7500000000000000	17.3785999999999990	40.7890000000000010	24.2174000000000010	NaN	10.1319000000000000	19.0717000000000000	NaN	55.0000000000000000	14.1875000000000000	31.8560000000000020	14.6144000000000000	1.2500000000000000	39.4727000000000030	25.7933999999999980	9.4702000000000002	62.0000000000000000	29.8253999999999980	NaN	46.0234000000000020	17.2348000000000000	29.5620000000000010	16.0588000000000020	5.8169000000000004	80.9676000000000040	52.8879000000000020	27.8944000000000010	56.5566000000000030	30.6250000000000000	6.7371999999999996	27.3400000000000000	38.1773999999999990	57.5125000000000030	16.2480000000000010	19.2811999999999980	22.8127000000000000	6.7500000000000000	22.4713999999999990	52.4375000000000000	4.3339999999999996	36.7586000000000010	17.4152999999999980	120.5000000000000000	52.6544000000000030	31.1816999999999990	23.8750000000000000	30.6436999999999990	8.4056999999999995	16.9114000000000000	10.0630000000000010	13.0000000000000000	11.7433999999999990	53.9707999999999970	NaN	15.2500000000000000	12.5487000000000000	28.2658999999999980	14.4749000000000000	52.2261999999999990	38.6199999999999970	NaN	29.8903000000000000	47.6088000000000020	46.5001000000000030	2.6875000000000000	22.3621000000000020	15.2306000000000010	37.4624999999999990	44.9429999999999980	37.3198000000000010	25.0593000000000000	1.8955000000000000	74.0000000000000000	9.8409999999999993	54.1717999999999980	NaN
19991208.0000000000000000	45.2500000000000000	22.9836999999999990	29.0625000000000000	5.8152999999999997	NaN	33.7205999999999970	21.4102000000000000	7.5854999999999997	12.0907000000000000	18.7188000000000020	14.9609000000000010	35.4720000000000010	11.1811000000000010	46.3860999999999990	7.9051000000000000	15.7621000000000000	16.5025000000000010	30.3750000000000000	6.9137000000000004	22.5500000000000010	22.3243000000000010	67.6905000000000000	16.5712000000000010	NaN	226.0000000000000000	23.9004000000000010	27.5789000000000010	27.3411000000000010	15.7500000000000000	44.3750000000000000	NaN	27.5000000000000000	86.8125000000000000	8.9807000000000006	28.0881000000000010	25.7982000000000010	13.6760000000000000	13.4123000000000000	24.3252999999999990	12.0776000000000000	14.0508000000000010	22.3164000000000020	17.6968000000000000	17.6086999999999990	13.3016000000000010	50.9598999999999980	8.0625000000000000	41.8487999999999970	24.8237999999999990	29.7500000000000000	31.5568999999999990	17.0041000000000010	28.1984999999999990	16.4375000000000000	23.4749000000000020	20.6524000000000000	19.3958000000000010	22.1642000000000010	41.3858000000000030	23.4457999999999980	28.0691999999999990	31.1025999999999990	17.9434000000000000	16.4222000000000000	18.4993000000000020	7.9425999999999997	31.9139000000000020	8.2599000000000000	NaN	10.4186999999999990	53.4292000000000020	25.9614000000000010	74.4150000000000060	9.9359000000000002	38.6732999999999980	10.2500000000000000	NaN	31.0845999999999980	15.5596999999999990	26.4978000000000020	63.2139999999999990	14.0779999999999990	32.8108000000000000	9.9520000000000000	21.8434999999999990	15.2601000000000000	NaN	7.5488000000000000	NaN	41.0717000000000000	17.4944999999999990	42.1912000000000020	75.6958999999999950	20.5844999999999980	4.8056000000000001	6.4789000000000003	2.5710999999999999	7.5049000000000001	23.1744999999999980	217.2187999999999900	23.4533999999999980	NaN	53.0816000000000020	38.7257000000000030	33.7188000000000020	28.2150000000000000	NaN	18.6999000000000000	27.7138999999999990	12.4662000000000010	3.2549999999999999	48.1443000000000010	NaN	NaN	20.5702000000000000	46.5784999999999980	NaN	38.8507000000000030	35.1250000000000000	72.1875000000000000	51.0000000000000000	15.9137000000000000	32.1107000000000010	46.1888999999999970	3.0112999999999999	9.6410000000000000	57.6250000000000000	30.0000000000000000	3.1036999999999999	17.3242000000000010	22.8717000000000010	7.8026999999999997	17.1427000000000010	52.9968000000000000	5.8917999999999999	17.5842999999999990	33.1437999999999990	44.8750000000000000	7.0933999999999999	19.5625000000000000	7.4831000000000003	3.9148999999999998	24.4886000000000020	26.3136000000000010	49.7781999999999980	43.7691999999999980	25.9803000000000000	11.2756000000000010	18.5287000000000010	NaN	5.8573000000000004	14.4647000000000010	10.7311000000000000	20.5000000000000000	14.5191000000000000	18.4156000000000010	63.6858000000000000	NaN	20.2099000000000010	51.5394999999999970	39.6974000000000020	46.2316000000000000	25.8965000000000000	25.0427000000000000	7.5819000000000001	31.4359000000000000	NaN	10.5718000000000000	27.0000000000000000	5.7968999999999999	18.6151000000000020	32.0630000000000020	10.0688999999999990	21.6527999999999990	13.1659000000000010	10.2170000000000010	NaN	20.5228000000000000	13.9627000000000000	15.8557000000000010	40.9232999999999980	13.8742000000000000	25.4964000000000010	10.2878000000000010	NaN	23.5949999999999990	35.8811000000000040	39.5075000000000000	50.9262999999999980	23.4695000000000000	17.2490999999999990	40.0467000000000010	12.9530999999999990	19.8305000000000010	65.4013000000000060	23.2912000000000000	39.9517999999999990	17.9375000000000000	4.4583000000000004	2.7578000000000000	31.8371999999999990	34.4973000000000030	59.0022000000000020	NaN	NaN	17.1601000000000000	41.8001999999999970	18.4536000000000020	78.1633999999999960	26.7234000000000020	41.0544999999999970	16.0433999999999980	12.4733000000000000	20.2241000000000000	17.6962000000000010	1.1771000000000000	53.3768000000000030	15.6678000000000000	23.6988999999999980	38.3019000000000030	30.4100000000000000	29.0650000000000010	49.3706000000000030	15.5581999999999990	22.7941000000000000	50.5302999999999970	8.2780000000000005	NaN	5.8596000000000004	21.9805999999999990	7.4375000000000000	23.1563000000000020	107.7086000000000000	NaN	32.2192000000000010	4.7694999999999999	36.8256999999999980	30.4063000000000020	41.0379999999999970	50.4213999999999980	22.2360000000000010	NaN	31.3134000000000010	145.3750000000000000	35.9688000000000020	6.2657999999999996	16.8636000000000020	514.0000000000000000	7.5937999999999999	40.2387999999999980	55.5018999999999990	NaN	14.0129000000000000	42.5174999999999980	11.5168000000000000	27.3497999999999980	10.5434000000000000	17.9213999999999980	NaN	26.8241000000000010	7.4161999999999999	49.5878999999999980	49.1216000000000010	54.0317999999999970	16.3845999999999990	34.5000000000000000	18.3854000000000010	19.8929000000000010	6.5545000000000000	8.9062999999999999	17.9435000000000000	19.8974000000000010	37.4945999999999980	62.5929000000000000	21.6191000000000000	18.1236000000000000	34.3504999999999970	13.1007000000000000	34.2500000000000000	17.4070000000000000	9.8229000000000006	6.3499999999999996	10.9179999999999990	76.9375000000000000	21.0490999999999990	15.5260000000000000	21.0882000000000010	12.9784000000000010	30.4990999999999990	41.8200999999999960	20.1738000000000000	20.7124999999999990	NaN	37.3832000000000020	35.9577000000000030	35.5709999999999980	NaN	27.1448000000000000	NaN	23.6092000000000010	33.6509000000000000	13.3876000000000010	35.1349000000000020	32.5895000000000010	64.0000000000000000	13.9716000000000000	41.4010000000000030	NaN	41.4285000000000000	59.7139999999999990	8.4600000000000009	49.7952999999999970	41.0135000000000010	41.3956999999999980	60.0309999999999990	7.4383999999999997	33.4688000000000020	11.3965000000000000	NaN	9.9512999999999998	9.8432999999999993	12.2500000000000000	18.5565000000000000	12.8476000000000000	22.4509000000000010	10.4514999999999990	20.5352000000000000	22.1504000000000010	7.0312999999999999	22.2500000000000000	17.4286999999999990	23.8781000000000000	37.6875000000000000	41.0399999999999990	11.5296000000000000	3.1143999999999998	NaN	23.7948999999999980	16.5653000000000010	42.8678999999999990	NaN	10.1875000000000000	45.7770000000000010	35.9275000000000020	19.6250000000000000	6.8532999999999999	23.6213000000000020	7.9951999999999996	31.7834000000000000	3.0749000000000000	19.9221000000000000	11.4970000000000000	6.6006999999999998	11.4688000000000000	18.4652999999999990	30.8516000000000010	31.2479000000000010	NaN	44.9913999999999990	NaN	5.9016000000000002	27.0930000000000000	4.8305999999999996	19.1219000000000000	14.1115999999999990	17.7945999999999990	39.8481999999999990	20.3654000000000010	12.1304000000000000	40.7351999999999990	5.9478000000000000	NaN	17.4172000000000010	10.3750000000000000	19.6766000000000010	37.7618000000000010	48.4682999999999990	29.5938000000000020	17.1553000000000000	9.2830999999999992	16.8459000000000000	17.8211000000000010	13.9319000000000010	25.3066999999999990	17.3435999999999990	34.4399999999999980	NaN	NaN	NaN	26.5337000000000000	23.7765999999999980	49.5608999999999970	20.0738999999999980	6.7500000000000000	24.2978999999999980	10.0000000000000000	23.2509000000000010	38.5893999999999980	NaN	17.1430000000000010	14.2585000000000000	9.5028000000000006	23.5112999999999990	19.8792000000000010	13.7613000000000000	NaN	18.4375000000000000	18.1515999999999980	11.4640000000000000	7.6970999999999998	12.5367999999999990	13.6385000000000010	15.1582000000000010	22.7340000000000020	58.4281999999999970	6.7500000000000000	6.3192000000000004	34.4523999999999970	NaN	7.9039000000000001	15.7375000000000010	23.8855000000000000	30.5619000000000010	15.0253999999999990	7.0156000000000001	17.0338999999999990	41.6066999999999960	23.9560000000000000	NaN	10.0020000000000010	19.1632000000000000	NaN	52.0000000000000000	13.5000000000000000	31.2671999999999990	15.1557000000000000	1.2024999999999999	39.5337000000000030	26.6246000000000010	9.2029999999999994	65.1875000000000000	29.5307000000000000	NaN	45.4378000000000030	18.1694999999999990	28.2867999999999990	16.2941000000000000	5.6303000000000001	78.7442000000000060	52.0229000000000000	28.1641000000000010	55.3823999999999970	32.5000000000000000	6.5115999999999996	26.3538000000000000	37.7137000000000030	59.3113999999999990	15.7250999999999990	18.6116999999999990	22.6368000000000010	6.8125000000000000	22.6879999999999990	52.2500000000000000	4.1506999999999996	35.0775999999999970	17.5860999999999980	141.0000000000000000	51.7961999999999990	30.8813000000000000	23.2500000000000000	29.4544000000000000	8.3323999999999998	16.3712000000000020	10.0630000000000010	12.7500000000000000	11.3270000000000000	53.5891999999999980	NaN	14.9525000000000010	12.1313999999999990	26.2730000000000000	14.0579000000000000	51.3530000000000020	40.6300000000000030	NaN	29.8675000000000000	47.6998000000000030	45.3258000000000010	2.8125000000000000	22.3621000000000020	15.1849000000000010	37.4624999999999990	43.1073000000000020	37.1531999999999980	24.8798999999999990	1.8472000000000000	80.4688000000000020	9.8717000000000006	52.5037000000000020	NaN
19991209.0000000000000000	45.2500000000000000	22.7862000000000010	27.7500000000000000	5.7239000000000004	NaN	32.6210000000000020	20.8899000000000010	7.6319999999999997	12.1353000000000010	18.4063000000000020	17.2625999999999990	35.3808999999999970	11.1275999999999990	45.9367999999999980	7.5888999999999998	15.5866000000000010	16.5350000000000000	30.3750000000000000	6.9904999999999999	21.8462000000000000	22.2023000000000010	68.9240999999999960	16.4324000000000010	NaN	247.0000000000000000	24.3982999999999990	27.7036000000000020	28.5029000000000000	15.3438000000000000	46.7500000000000000	NaN	28.0000000000000000	95.2500000000000000	8.8111999999999995	28.8700000000000010	25.7982000000000010	14.7879000000000000	13.8748000000000000	25.2197000000000000	11.7459000000000010	14.4178999999999990	22.7848000000000010	17.6968000000000000	17.6778000000000010	13.3016000000000010	51.3945999999999970	8.0000000000000000	41.7991999999999990	24.6994000000000010	30.0000000000000000	31.9749000000000020	17.2796999999999980	27.7562000000000000	16.1250000000000000	23.8661999999999990	19.6299999999999990	18.8884000000000010	20.8282999999999990	42.9185999999999980	22.8954999999999980	27.2910000000000000	30.8234999999999990	14.7509999999999990	16.4222000000000000	19.4590000000000000	8.7093000000000007	31.6416000000000000	8.1146999999999991	NaN	10.1006000000000000	53.2331000000000000	25.5627999999999990	76.2300000000000040	9.9905000000000008	38.6732999999999980	10.2813000000000000	NaN	31.0845999999999980	15.4281000000000010	25.8909999999999980	60.7291000000000030	14.1171000000000010	31.8994000000000000	10.0482999999999990	21.5414999999999990	14.8786000000000000	NaN	7.3230000000000004	NaN	36.9885000000000020	17.0836000000000010	40.2539000000000020	77.1537000000000010	20.5844999999999980	4.7127999999999997	6.3026000000000000	2.6936000000000000	7.4645999999999999	22.7386000000000020	215.2500000000000000	23.4987999999999990	NaN	53.5352999999999990	38.3834000000000020	32.1330000000000030	28.8750000000000000	NaN	18.6999000000000000	27.4065000000000010	12.1725999999999990	3.2145999999999999	46.6101999999999990	NaN	NaN	21.1100999999999990	46.3029000000000010	NaN	35.8453000000000020	35.2500000000000000	75.0000000000000000	50.9688000000000020	15.9700000000000010	32.1505000000000010	45.6441000000000020	3.2948000000000000	9.4910999999999994	59.6250000000000000	31.2500000000000000	2.9403000000000001	17.4143000000000010	23.5844999999999980	7.8026999999999997	16.9479000000000010	51.5792000000000000	5.7289000000000003	17.5243000000000000	33.6983000000000030	43.3750000000000000	7.2031000000000001	20.1250000000000000	7.4682000000000004	3.8468000000000000	24.0243000000000000	26.1942999999999980	54.3035000000000000	43.2488999999999990	26.3811000000000000	11.0348000000000010	18.5287000000000010	NaN	5.8273999999999999	14.6382999999999990	10.5798000000000010	20.7813000000000020	14.1028000000000000	18.1871000000000010	63.6272999999999980	NaN	19.9622999999999990	51.3825999999999960	39.3376000000000020	47.0285999999999970	26.4457999999999980	24.6788999999999990	7.8570000000000002	32.0657000000000000	NaN	10.4270000000000000	27.3125000000000000	5.8983999999999996	19.5216999999999990	33.8130000000000020	10.1282000000000000	21.2344000000000010	12.8979000000000000	10.2322000000000010	NaN	20.6505000000000010	13.9084000000000000	14.8436000000000000	39.8755999999999990	13.6199999999999990	24.7942000000000000	10.9587000000000000	NaN	23.8838000000000010	34.9525999999999970	39.6824999999999970	51.6715000000000020	23.8844999999999990	16.9496000000000000	40.6244999999999980	13.3594000000000010	19.1767000000000000	68.3542999999999950	23.3770999999999990	41.6105000000000020	17.7655999999999990	4.3695000000000004	2.6875000000000000	30.8171000000000000	37.1353000000000010	59.2558000000000010	NaN	NaN	16.9126000000000010	43.4940000000000000	18.0834000000000010	77.1483000000000060	25.6589999999999990	41.7894999999999970	16.8741999999999980	12.4582000000000000	19.3996999999999990	17.6962000000000010	1.1771000000000000	53.0977000000000030	15.7817000000000010	23.5272000000000010	37.9628999999999980	30.1927999999999980	28.8267999999999990	48.4656999999999980	15.2387999999999990	22.1325000000000000	52.2976999999999990	8.4949999999999992	NaN	5.7408000000000001	21.6881999999999980	7.0000000000000000	23.0313000000000020	111.6464000000000000	NaN	31.4027999999999990	4.8152999999999997	36.4341999999999970	29.0000000000000000	40.5105999999999970	53.4299000000000040	21.5355999999999990	NaN	31.3134000000000010	165.5000000000000000	35.6250000000000000	6.1467000000000001	16.4312000000000000	502.6200000000000000	7.6250000000000000	39.8864999999999980	59.3999999999999990	NaN	13.2753999999999990	42.3141000000000030	11.5489999999999990	27.3497999999999980	10.3957000000000000	17.9213999999999980	NaN	27.0368999999999990	7.2617000000000003	48.1923999999999990	48.4615999999999970	54.8181000000000010	15.9484999999999990	33.6875000000000000	18.3302000000000010	20.1070999999999990	6.2834000000000003	8.9062999999999999	17.9435000000000000	19.7134000000000000	35.7770999999999970	61.8359000000000020	20.9192000000000000	18.1236000000000000	33.7162999999999970	13.0699000000000010	32.5000000000000000	17.3262000000000000	9.8229000000000006	6.3499999999999996	10.7104000000000000	72.7500000000000000	21.3223999999999980	15.5845000000000000	19.8736999999999990	12.9784000000000010	30.3449999999999990	41.7618000000000010	19.5025000000000010	20.7124999999999990	NaN	37.7393000000000000	35.8969000000000020	35.7344000000000010	NaN	27.1735000000000010	NaN	23.4574000000000000	34.6227000000000020	13.5200999999999990	35.8847999999999980	33.0668000000000010	64.5625000000000000	13.2982999999999990	40.6066999999999960	NaN	40.7000000000000030	59.5120000000000000	8.8079999999999998	50.9512000000000000	40.5202000000000030	39.4970000000000000	58.2471999999999990	7.2611999999999997	34.2500000000000000	11.3295999999999990	NaN	9.9512999999999998	9.9332999999999991	12.2500000000000000	18.3104000000000010	13.9701000000000000	22.2082000000000010	10.1336999999999990	19.9802000000000000	21.5264999999999990	6.9687999999999999	21.6900000000000010	17.2249000000000020	24.1267999999999990	38.5938000000000020	40.1938999999999990	11.5296000000000000	3.2587000000000002	NaN	23.0627999999999990	16.6899000000000020	43.5630000000000020	NaN	10.1875000000000000	47.1927999999999980	35.5634000000000010	19.2655999999999990	7.2024999999999997	23.0452000000000010	7.8750000000000000	31.7394000000000000	3.1770999999999998	19.8089000000000010	11.7409000000000000	6.3545999999999996	11.5625000000000000	18.2316000000000000	31.3790000000000010	31.3585999999999990	NaN	45.3759000000000010	NaN	5.7042000000000002	28.0442000000000000	4.8005000000000004	19.2916999999999990	14.1115999999999990	17.2046999999999990	39.8481999999999990	20.1000000000000010	11.7577000000000000	40.6908000000000030	5.8472999999999997	NaN	17.4172000000000010	10.3750000000000000	19.7862000000000010	39.0724999999999980	48.9423999999999990	29.4375000000000000	17.7007000000000010	8.7643000000000004	18.0799999999999980	17.5606000000000010	14.0856999999999990	26.4231000000000020	16.8480999999999990	33.6672999999999970	NaN	NaN	NaN	26.6480999999999990	23.8966999999999990	49.3363000000000010	19.8063000000000000	6.3750000000000000	24.6557999999999990	9.8439999999999994	23.8743000000000020	39.1137999999999980	NaN	17.0926000000000010	13.9627000000000000	10.2767000000000000	24.4435000000000000	19.2514000000000000	13.5280000000000000	NaN	19.1563000000000020	17.3061000000000010	11.1567000000000010	7.5773000000000001	12.3415000000000000	13.2326000000000000	15.1582000000000010	22.7959999999999990	57.5244000000000000	6.7024999999999997	6.2460000000000004	32.7738999999999980	NaN	7.7430000000000003	15.3590000000000000	24.0276999999999990	30.4376000000000000	14.8402999999999990	8.1562999999999999	17.3211000000000010	41.7029000000000000	23.5784999999999980	NaN	9.7746999999999993	18.6600000000000000	NaN	52.7500000000000000	14.1250000000000000	31.5615999999999990	15.6553000000000000	1.2200000000000000	39.5946000000000000	26.7853999999999990	9.0545000000000009	67.2500000000000000	28.1160000000000000	NaN	49.4194999999999990	17.8189999999999990	28.5765999999999990	16.1765000000000010	5.5057999999999998	81.0293000000000060	54.3706999999999990	28.6505000000000010	40.1180000000000020	34.0000000000000000	6.6673999999999998	26.6277000000000010	37.9712999999999990	59.6385000000000010	15.1620000000000010	18.1206999999999990	23.4910000000000000	7.0000000000000000	22.4516999999999990	56.1250000000000000	4.2161000000000000	34.5733000000000030	17.5178000000000010	130.3125000000000000	51.7456999999999990	29.9200000000000020	23.0000000000000000	28.7458999999999990	8.1613000000000007	16.3712000000000020	10.2460000000000000	12.3750000000000000	12.0557000000000000	53.5891999999999980	NaN	15.0625000000000000	11.8253000000000000	26.8027000000000020	15.0109999999999990	51.0801999999999980	43.2500000000000000	NaN	30.3009999999999980	48.0638999999999970	44.5626000000000030	2.8125000000000000	22.7650000000000010	14.9537000000000000	36.2152999999999990	43.6886000000000010	37.4864000000000030	23.8034000000000000	1.8230000000000000	79.9688000000000020	9.9024999999999999	51.1180000000000020	NaN
19991210.0000000000000000	45.6875000000000000	23.3785999999999990	26.3280999999999990	5.8456999999999999	NaN	32.6210000000000020	21.0384999999999990	7.5854999999999997	12.1353000000000010	18.4063000000000020	16.6560999999999990	34.2866000000000000	11.1811000000000010	46.0446000000000030	7.6189999999999998	15.4404000000000000	16.6651999999999990	31.5000000000000000	6.9904999999999999	21.5237000000000020	21.1654000000000020	70.6751000000000000	16.4324000000000010	NaN	253.3750000000000000	23.5684000000000000	26.2374000000000010	28.0072000000000010	14.6875000000000000	44.2500000000000000	NaN	29.0000000000000000	111.4375000000000000	9.0372000000000003	28.2084000000000010	25.7982000000000010	14.7323000000000000	13.8459000000000000	25.1718000000000010	11.5248000000000010	14.5198000000000000	22.7848000000000010	17.2322999999999990	17.6778000000000010	12.2784000000000000	51.3945999999999970	7.5000000000000000	42.7068999999999970	24.8119000000000010	29.7500000000000000	31.9749000000000020	17.6402000000000000	27.7562000000000000	15.9688000000000000	23.8661999999999990	18.1496000000000000	18.6628000000000010	21.4281000000000010	42.9185999999999980	23.0627999999999990	27.7357000000000010	30.8234999999999990	16.4023000000000000	16.2349000000000000	19.2242000000000000	8.5713000000000008	35.0726999999999980	8.1146999999999991	NaN	10.1800999999999990	53.2331000000000000	24.7710000000000010	75.8586999999999990	9.5966000000000005	38.6732999999999980	10.0625000000000000	NaN	30.4629000000000010	15.4281000000000010	25.8044000000000010	61.0927000000000010	13.8042000000000000	31.3194000000000020	10.1309000000000000	21.5414999999999990	14.8786000000000000	NaN	7.3230000000000004	NaN	37.2287000000000030	15.9682000000000000	40.2539000000000020	77.1537000000000010	20.5844999999999980	4.5580999999999996	6.3173000000000004	2.6936000000000000	7.5049000000000001	23.4651000000000000	223.1250000000000000	23.0215999999999990	NaN	53.8755000000000020	38.3834000000000020	32.1330000000000030	32.2988000000000000	NaN	19.0505999999999990	27.0478999999999980	12.1725999999999990	3.2145999999999999	46.6101999999999990	NaN	NaN	21.0020999999999990	45.2004000000000020	NaN	35.8453000000000020	36.0000000000000000	75.0000000000000000	49.9375000000000000	15.9700000000000010	31.2364000000000000	45.6441000000000020	3.3077000000000001	9.5410000000000004	56.4688000000000020	29.0000000000000000	2.7361000000000000	17.2341000000000020	23.7139999999999990	7.9527999999999999	16.8505000000000000	51.4701000000000020	5.7289000000000003	17.5243000000000000	33.9497000000000000	42.5000000000000000	7.2031000000000001	20.1250000000000000	7.4682000000000004	3.8468000000000000	22.9715999999999990	26.6717000000000010	54.3035000000000000	42.6129000000000030	26.6021000000000000	11.0348000000000010	18.5287000000000010	NaN	5.7533000000000003	14.3202000000000000	10.4872000000000000	20.8125000000000000	14.1028000000000000	18.1871000000000010	62.9833000000000000	NaN	19.9622999999999990	50.7030999999999990	39.3376000000000020	46.6300999999999990	26.4457999999999980	24.2313000000000010	7.7958999999999996	32.0657000000000000	NaN	10.3465000000000010	26.9688000000000020	6.0312999999999999	18.5547000000000000	35.5630000000000020	9.9334000000000007	21.2344000000000010	13.1659000000000010	10.1715000000000000	NaN	20.4463000000000010	13.6910000000000010	14.8436000000000000	39.5058000000000010	13.6199999999999990	25.4437000000000000	11.3315000000000000	NaN	23.5124999999999990	35.2841999999999980	39.0989999999999970	51.8703000000000000	23.8844999999999990	16.9496000000000000	41.8874000000000000	13.3125000000000000	19.1767000000000000	68.3542999999999950	23.3770999999999990	41.4114000000000000	17.4063000000000020	4.3102999999999998	2.5741999999999998	30.8171000000000000	38.3213000000000010	59.0529000000000010	NaN	NaN	16.9126000000000010	42.5865999999999970	18.0834000000000010	76.4317000000000060	25.1546999999999980	41.7894999999999970	16.5017999999999990	12.4582000000000000	19.3996999999999990	16.9174000000000010	1.1879999999999999	56.1272999999999980	15.7106999999999990	23.5272000000000010	37.9628999999999980	29.1936000000000000	28.6183000000000010	47.1584999999999970	14.9194000000000000	22.1325000000000000	51.3416000000000000	8.4949999999999992	NaN	5.7408000000000001	21.7944999999999990	7.0000000000000000	23.4688000000000020	103.4234000000000000	NaN	31.4027999999999990	4.6948999999999996	35.4104000000000030	29.3750000000000000	41.8050000000000000	53.0688000000000030	21.5355999999999990	NaN	31.0542000000000020	163.3750000000000000	35.1250000000000000	6.1542000000000003	16.4312000000000000	494.5000000000000000	7.6250000000000000	41.1871000000000010	59.6475000000000010	NaN	13.2753999999999990	43.1957000000000020	11.3747000000000010	27.3497999999999980	10.4252000000000000	17.9213999999999980	NaN	28.2744000000000000	7.2617000000000003	47.0450000000000020	48.4615999999999970	56.1661000000000000	15.4501000000000010	33.3438000000000020	18.3302000000000010	20.2907000000000010	6.2340999999999998	8.9062999999999999	17.9435000000000000	19.3456000000000010	34.0013000000000010	61.7194999999999960	20.9192000000000000	18.4710000000000000	33.8220000000000030	12.9158000000000010	31.0000000000000000	17.0837000000000000	9.6971000000000007	6.3685000000000000	10.5859000000000010	76.0000000000000000	21.7476999999999980	15.5845000000000000	19.8736999999999990	12.3576999999999990	30.1909999999999990	40.3620000000000020	19.6790999999999980	20.8926000000000020	NaN	37.7393000000000000	36.4436000000000040	35.2986000000000000	NaN	28.2075999999999990	NaN	22.4705000000000010	34.6227000000000020	13.1755000000000000	38.3485000000000010	32.4159000000000010	66.3750000000000000	13.1973000000000000	41.4010000000000030	NaN	40.9361999999999990	57.6535000000000010	9.1125000000000007	50.7860999999999980	41.1236000000000030	39.4970000000000000	59.1698000000000020	7.2907999999999999	30.0625000000000000	11.3831000000000010	NaN	9.4329999999999998	9.9332999999999991	12.8750000000000000	18.5073000000000010	13.4400000000000000	22.2082000000000010	10.1336999999999990	20.3131999999999980	21.2145000000000010	6.9687999999999999	21.2500000000000000	17.0210000000000010	25.2772000000000010	38.9375000000000000	41.5771999999999980	11.5032000000000000	3.2225999999999999	NaN	23.0169999999999990	16.6899000000000020	43.5630000000000020	NaN	10.4375000000000000	47.1927999999999980	35.5634000000000010	19.8750000000000000	7.2024999999999997	24.0534000000000000	7.5743999999999998	30.9469999999999990	3.1589000000000000	19.8089000000000010	11.7409000000000000	6.3545999999999996	11.4375000000000000	18.2984000000000010	30.9042999999999990	31.0080999999999990	NaN	44.6846999999999990	NaN	5.9805000000000001	28.0442000000000000	4.8005000000000004	19.8028000000000010	14.0143000000000000	17.3030000000000010	40.6871000000000010	20.1000000000000010	11.7577000000000000	40.6908000000000030	5.8472999999999997	NaN	17.4172000000000010	10.1250000000000000	19.7862000000000010	38.7603999999999970	48.4530000000000030	29.5000000000000000	17.7007000000000010	8.9555000000000007	17.5864000000000010	17.5606000000000010	14.1472000000000000	25.3066999999999990	16.8480999999999990	32.7843000000000020	NaN	NaN	NaN	26.3626000000000000	23.8966999999999990	50.6843000000000000	20.2881000000000000	6.1093999999999999	25.7296000000000010	10.0000000000000000	23.8743000000000020	38.9564999999999980	NaN	16.4371000000000010	13.7555999999999990	9.9361999999999995	23.4594999999999980	18.9897999999999990	13.5280000000000000	NaN	19.0625000000000000	17.3061000000000010	10.8195999999999990	7.4874999999999998	12.1785999999999990	12.7455000000000000	14.9030000000000000	22.7959999999999990	59.5446000000000030	6.7350000000000003	6.1483999999999996	32.7738999999999980	NaN	7.8636999999999997	15.3590000000000000	24.0276999999999990	30.7482000000000010	14.8402999999999990	7.6093999999999999	17.2924000000000010	41.7029000000000000	22.6493000000000000	NaN	9.7746999999999993	18.6600000000000000	NaN	50.0625000000000000	14.1250000000000000	31.3848999999999980	15.9884000000000000	1.2200000000000000	37.7670999999999990	26.8659000000000000	9.0545000000000009	64.3125000000000000	28.1160000000000000	NaN	49.4194999999999990	17.2786000000000010	28.4606999999999990	16.3529000000000020	5.5057999999999998	85.9701000000000020	52.3935999999999990	28.6505000000000010	50.8813999999999990	33.2500000000000000	6.3097000000000003	26.0797999999999990	37.9712999999999990	57.8939999999999980	15.0413999999999990	18.2100000000000010	23.4910000000000000	7.0000000000000000	22.4516999999999990	55.5000000000000000	4.2161000000000000	34.5733000000000030	17.5178000000000010	130.1250000000000000	52.3010000000000020	29.4393999999999990	23.0000000000000000	29.1001000000000010	8.0635999999999992	17.0758000000000010	10.6119000000000000	11.8750000000000000	11.5352000000000000	53.3710999999999980	NaN	14.9674999999999990	11.8531999999999990	26.8027000000000020	14.8918000000000000	54.5728000000000010	40.0000000000000000	NaN	29.7989999999999990	47.4266999999999970	44.1516000000000020	2.7500000000000000	22.9665000000000000	14.8614000000000000	36.2152999999999990	42.0977000000000030	38.1251000000000030	22.4876000000000000	1.8230000000000000	86.6875000000000000	9.9024999999999999	52.0932000000000030	NaN
